Date,Open,High,Low,Close,Adj Close,Volume
2016-04-28,79.750000,80.320000,79.000000,79.290001,76.363419,575500
2016-04-29,77.220001,77.959999,75.709999,76.000000,73.194862,777800
2016-05-02,75.779999,77.330002,75.650002,76.849998,74.013489,478800
2016-05-03,76.389999,76.500000,75.599998,75.750000,72.954086,836200
2016-05-04,75.250000,75.900002,75.010002,75.559998,72.771088,574200
2016-05-05,75.540001,76.480003,75.120003,76.059998,73.252632,307100
2016-05-06,76.000000,76.550003,75.720001,76.279999,73.464523,222400
2016-05-09,76.169998,76.820000,75.660004,76.550003,73.724571,365700
2016-05-10,76.730003,77.300003,76.309998,77.080002,74.235001,196600
2016-05-11,77.070000,77.669998,76.680000,76.830002,73.994225,251800
2016-05-12,77.320000,77.980003,77.080002,77.629997,74.764709,219900
2016-05-13,77.339996,77.339996,76.510002,76.970001,74.129074,202900
2016-05-16,77.080002,77.790001,76.629997,77.400002,74.543190,169500
2016-05-17,77.260002,77.419998,75.239998,75.400002,72.617004,446800
2016-05-18,75.120003,76.089996,74.830002,75.250000,72.472534,337400
2016-05-19,74.760002,75.480003,74.160004,74.849998,72.087303,253100
2016-05-20,75.309998,75.779999,74.970001,75.330002,72.549591,301700
2016-05-23,75.489998,75.629997,74.730003,74.790001,72.029526,206200
2016-05-24,75.239998,76.559998,75.150002,76.379997,73.560829,257900
2016-05-25,76.349998,76.860001,76.080002,76.349998,73.531952,173400
2016-05-26,76.519997,76.760002,75.959999,76.430000,73.608986,140300
2016-05-27,76.519997,77.190002,76.180000,77.139999,74.292778,246300
2016-05-31,77.220001,77.540001,76.830002,77.260002,74.408356,267700
2016-06-01,76.860001,77.209999,76.070000,77.209999,74.360191,194600
2016-06-02,77.150002,77.349998,76.790001,77.349998,74.495033,222600
2016-06-03,77.570000,77.790001,76.940002,77.199997,74.350571,145100
2016-06-06,77.309998,78.029999,76.790001,77.089996,74.244629,184800
2016-06-07,77.029999,77.910004,77.029999,77.489998,74.629868,170000
2016-06-08,77.589996,78.550003,77.120003,77.720001,74.851372,128100
2016-06-09,77.400002,77.870003,77.180000,77.790001,74.918808,123400
2016-06-10,77.400002,78.199997,77.400002,78.199997,75.313652,274700
2016-06-13,77.750000,78.080002,76.620003,76.779999,73.946075,261800
2016-06-14,76.830002,76.959999,76.099998,76.440002,73.618637,246100
2016-06-15,76.500000,76.959999,76.059998,76.320000,73.503059,213300
2016-06-16,76.059998,76.940002,75.660004,76.500000,73.676399,285400
2016-06-17,76.220001,76.599998,75.790001,76.349998,73.531952,351300
2016-06-20,77.180000,77.980003,77.180000,77.620003,74.755066,140800
2016-06-21,77.620003,78.220001,77.470001,77.680000,74.812851,213400
2016-06-22,77.910004,78.309998,77.620003,78.309998,75.419594,162800
2016-06-23,79.080002,80.139999,79.080002,80.139999,77.182053,368500
2016-06-24,77.199997,78.099998,76.540001,76.750000,73.917168,461600
2016-06-27,75.930000,75.970001,74.269997,74.599998,71.846527,327800
2016-06-28,74.900002,75.690002,74.529999,75.690002,72.896301,216300
2016-06-29,76.550003,76.949997,75.949997,76.720001,73.888290,198000
2016-06-30,76.959999,79.150002,76.760002,79.129997,76.209328,395900
2016-07-01,78.989998,79.730003,78.500000,79.169998,76.247856,169300
2016-07-05,78.849998,79.099998,77.800003,78.720001,75.814468,207000
2016-07-06,78.660004,78.820000,77.970001,78.739998,75.833733,192300
2016-07-07,78.889999,79.330002,78.279999,78.489998,75.592941,155400
2016-07-08,79.269997,79.849998,79.099998,79.790001,76.844963,132300
2016-07-11,80.080002,80.470001,79.879997,80.199997,77.239838,144500
2016-07-12,80.750000,81.169998,80.360001,80.410004,77.442078,143800
2016-07-13,80.769997,80.919998,80.080002,80.230003,77.268745,188000
2016-07-14,80.800003,81.000000,79.860001,80.190002,77.230209,134100
2016-07-15,80.110001,80.629997,79.919998,79.919998,76.970169,164500
2016-07-18,79.919998,80.540001,79.580002,79.910004,76.960556,93400
2016-07-19,79.860001,80.089996,79.220001,79.620003,76.681252,87100
2016-07-20,79.559998,80.720001,79.559998,80.300003,77.336159,191200
2016-07-21,80.059998,80.570000,79.730003,79.940002,76.989441,132500
2016-07-22,79.919998,80.790001,79.910004,80.459999,77.490250,140900
2016-07-25,80.040001,80.400002,79.800003,79.949997,77.287231,235000
2016-07-26,79.879997,80.720001,79.879997,80.300003,77.625587,185200
2016-07-27,80.739998,80.739998,79.279999,79.720001,77.064896,321300
2016-07-28,79.709999,79.989998,78.970001,79.379997,76.736221,239100
2016-07-29,79.919998,81.500000,77.110001,78.180000,75.576187,730500
2016-08-01,78.139999,78.139999,77.000000,77.339996,74.764168,302600
2016-08-02,77.230003,77.230003,75.940002,76.610001,74.058479,406600
2016-08-03,76.709999,76.970001,76.250000,76.620003,74.068161,213500
2016-08-04,76.739998,77.489998,76.540001,76.779999,74.222824,171800
2016-08-05,77.300003,77.320000,76.449997,76.589996,74.039146,217700
2016-08-08,76.709999,77.589996,75.989998,76.169998,73.633141,185000
2016-08-09,76.260002,76.599998,75.720001,75.980003,73.449471,153000
2016-08-10,76.070000,76.330002,75.839996,76.220001,73.681473,133000
2016-08-11,76.580002,76.860001,75.870003,76.099998,73.565460,185000
2016-08-12,75.989998,76.099998,75.349998,75.580002,73.062775,99200
2016-08-15,75.870003,76.080002,75.480003,75.500000,72.985458,103000
2016-08-16,75.589996,75.639999,75.080002,75.160004,72.656769,186000
2016-08-17,75.220001,75.820000,75.010002,75.790001,73.265778,179400
2016-08-18,75.800003,76.830002,75.620003,76.830002,74.271149,220900
2016-08-19,76.459999,76.989998,76.239998,76.779999,74.222824,209400
2016-08-22,76.769997,77.220001,76.400002,77.099998,74.532150,144600
2016-08-23,77.410004,77.930000,77.269997,77.339996,74.764168,312400
2016-08-24,77.220001,77.739998,77.220001,77.580002,74.996185,185900
2016-08-25,77.430000,78.540001,77.430000,78.070000,75.469841,219500
2016-08-26,78.050003,79.070000,78.050003,78.470001,75.856544,376200
2016-08-29,78.500000,79.059998,78.500000,78.779999,76.156212,163400
2016-08-30,78.779999,79.120003,78.589996,78.690002,76.069214,198900
2016-08-31,78.540001,78.790001,77.959999,77.980003,75.382843,279700
2016-09-01,78.120003,78.300003,77.489998,77.970001,75.373192,209800
2016-09-02,78.470001,79.180000,78.099998,79.160004,76.523567,253000
2016-09-06,79.440002,79.809998,78.919998,79.459999,76.813560,237300
2016-09-07,79.180000,80.370003,79.180000,80.290001,77.615906,316100
2016-09-08,80.519997,80.550003,79.169998,79.209999,76.571884,281300
2016-09-09,78.900002,78.900002,77.430000,77.459999,74.880180,327000
2016-09-12,77.000000,78.559998,77.000000,78.510002,75.895203,182000
2016-09-13,78.080002,78.370003,77.139999,77.540001,74.957504,246800
2016-09-14,77.489998,77.760002,77.059998,77.370003,74.793159,150000
2016-09-15,77.300003,77.989998,77.260002,77.900002,75.305511,162600
2016-09-16,77.360001,78.010002,77.360001,77.599998,75.015495,310300
2016-09-19,77.900002,78.800003,77.889999,78.610001,75.991867,233200
2016-09-20,79.099998,79.410004,78.699997,78.720001,76.098206,281000
2016-09-21,78.809998,78.809998,77.839996,78.419998,75.808197,413200
2016-09-22,79.059998,79.510002,78.360001,79.459999,76.813560,281200
2016-09-23,79.169998,79.489998,78.610001,78.790001,76.165871,157100
2016-09-26,78.690002,78.970001,78.029999,78.059998,75.460182,289000
2016-09-27,77.360001,78.139999,77.360001,77.739998,75.150841,631400
2016-09-28,78.360001,78.650002,77.610001,78.610001,75.991867,211900
2016-09-29,78.279999,78.570000,77.080002,77.209999,74.638481,175600
2016-09-30,77.360001,77.919998,76.970001,77.410004,74.831833,407300
2016-10-03,77.070000,77.440002,76.599998,77.360001,74.783508,301500
2016-10-04,77.239998,77.680000,76.000000,76.099998,73.565460,242700
2016-10-05,76.459999,76.589996,75.930000,76.110001,73.575127,189300
2016-10-06,76.099998,76.669998,75.760002,76.639999,74.087486,153500
2016-10-07,76.660004,76.669998,75.190002,75.639999,73.120781,279500
2016-10-10,76.040001,76.519997,75.680000,75.949997,73.420464,116400
2016-10-11,75.620003,75.720001,74.550003,75.070000,72.569778,152700
2016-10-12,75.559998,75.809998,75.110001,75.660004,73.140121,140900
2016-10-13,74.779999,76.199997,74.580002,75.589996,73.072456,211200
2016-10-14,75.620003,76.320000,75.570000,76.029999,73.497803,176800
2016-10-17,76.019997,76.470001,76.010002,76.199997,73.662132,80900
2016-10-18,76.779999,77.000000,75.980003,76.389999,73.845810,112900
2016-10-19,76.279999,76.779999,76.040001,76.480003,73.932808,97900
2016-10-20,76.120003,76.800003,75.389999,75.970001,73.439789,219300
2016-10-21,76.230003,77.410004,75.870003,77.160004,74.590157,184300
2016-10-24,78.099998,78.099998,76.550003,77.000000,74.435486,150800
2016-10-25,77.000000,77.139999,76.190002,77.000000,74.435486,187000
2016-10-26,76.820000,77.190002,76.199997,76.269997,73.729790,178100
2016-10-27,76.389999,76.389999,75.610001,76.279999,73.739471,174600
2016-10-28,75.110001,75.989998,72.580002,73.019997,70.588036,464700
2016-10-31,72.930000,73.889999,70.879997,71.440002,69.364655,644800
2016-11-01,71.809998,71.849998,70.320000,70.620003,68.568466,345000
2016-11-02,70.580002,71.540001,70.430000,70.919998,68.859749,267400
2016-11-03,70.849998,71.459999,70.639999,70.870003,68.811211,218400
2016-11-04,71.110001,71.900002,70.980003,71.410004,69.335518,235500
2016-11-07,72.570000,74.349998,72.290001,74.330002,72.170692,458400
2016-11-08,74.279999,76.070000,74.050003,75.739998,73.539726,506700
2016-11-09,74.910004,76.070000,74.529999,75.110001,72.928040,313100
2016-11-10,75.599998,75.599998,71.269997,71.430000,69.354935,636100
2016-11-11,71.360001,72.129997,70.750000,71.849998,69.762733,316900
2016-11-14,72.290001,73.540001,72.290001,73.510002,71.374519,308000
2016-11-15,73.480003,73.800003,72.989998,73.379997,71.248291,190100
2016-11-16,73.629997,73.720001,72.910004,73.570000,71.432770,205000
2016-11-17,73.580002,74.260002,72.800003,73.580002,71.442490,207500
2016-11-18,73.419998,73.760002,72.870003,73.650002,71.510445,229800
2016-11-21,73.699997,74.260002,73.339996,74.239998,72.083298,182500
2016-11-22,74.599998,75.650002,73.959999,75.489998,73.296997,452400
2016-11-23,75.169998,76.250000,75.169998,76.050003,73.840729,193800
2016-11-25,76.040001,76.660004,75.750000,76.070000,73.860153,123600
2016-11-28,76.099998,77.279999,76.019997,76.470001,74.248528,346700
2016-11-29,76.550003,76.860001,74.800003,75.680000,73.481476,327500
2016-11-30,76.019997,76.050003,73.169998,73.180000,71.054100,322800
2016-12-01,73.199997,74.339996,72.459999,74.080002,71.927963,467500
2016-12-02,74.050003,74.550003,73.599998,74.349998,72.190109,388100
2016-12-05,74.839996,75.129997,73.160004,73.379997,71.248291,351000
2016-12-06,73.309998,73.860001,73.099998,73.800003,71.656097,356700
2016-12-07,71.839996,73.919998,71.839996,73.480003,71.345390,579300
2016-12-08,73.489998,74.589996,73.489998,74.199997,72.044464,408300
2016-12-09,74.610001,75.180000,74.279999,74.750000,72.578499,389200
2016-12-12,74.849998,75.150002,74.150002,74.610001,72.442551,276800
2016-12-13,74.900002,75.599998,74.309998,74.370003,72.209534,270700
2016-12-14,74.570000,74.970001,72.959999,73.050003,70.927887,343900
2016-12-15,73.320000,73.720001,72.830002,72.959999,70.840492,346100
2016-12-16,73.220001,73.400002,72.730003,72.930000,70.811363,561000
2016-12-19,73.190002,74.029999,72.779999,73.800003,71.656097,280500
2016-12-20,73.650002,74.059998,73.400002,73.980003,71.830856,269400
2016-12-21,73.870003,74.160004,73.339996,73.360001,71.228874,280600
2016-12-22,73.500000,73.500000,72.580002,73.019997,70.898743,291800
2016-12-23,72.860001,73.930000,72.860001,73.610001,71.471619,161500
2016-12-27,73.809998,74.570000,73.449997,74.169998,72.015343,201800
2016-12-28,74.050003,74.690002,73.570000,73.720001,71.578423,191000
2016-12-29,73.639999,74.120003,73.320000,73.690002,71.549294,139400
2016-12-30,73.730003,74.019997,73.250000,73.449997,71.316261,240200
2017-01-03,74.260002,74.260002,72.349998,73.019997,70.898743,336300
2017-01-04,72.919998,74.720001,72.919998,74.230003,72.073593,418800
2017-01-05,73.720001,74.410004,73.230003,73.470001,71.335670,356400
2017-01-06,73.529999,73.970001,73.070000,73.500000,71.364807,282800
2017-01-09,73.500000,74.410004,73.080002,73.680000,71.539574,374100
2017-01-10,73.330002,73.589996,72.800003,72.820000,70.704559,161500
2017-01-11,73.029999,73.360001,72.779999,73.040001,70.918167,193100
2017-01-12,73.150002,73.760002,72.360001,73.330002,71.199745,184300
2017-01-13,73.309998,73.820000,73.029999,73.500000,71.364807,188900
2017-01-17,72.879997,73.830002,72.860001,73.339996,71.209457,270200
2017-01-18,73.419998,73.800003,73.019997,73.480003,71.345390,261000
2017-01-19,73.639999,73.690002,72.459999,72.730003,70.617172,374700
2017-01-20,72.370003,72.510002,71.550003,71.639999,69.558838,347300
2017-01-23,71.879997,72.529999,71.440002,72.449997,70.345306,384600
2017-01-24,72.790001,73.849998,72.790001,73.540001,71.403633,266000
2017-01-25,73.360001,73.940002,73.139999,73.430000,71.296844,267000
2017-01-26,73.389999,73.680000,72.459999,73.320000,71.190033,275500
2017-01-27,73.400002,73.489998,72.910004,73.440002,71.306534,320400
2017-01-30,73.070000,73.440002,72.099998,72.739998,70.935974,342000
2017-01-31,72.870003,73.309998,72.290001,72.970001,71.160263,669400
2017-02-01,73.290001,74.050003,73.050003,73.940002,72.106209,446900
2017-02-02,73.800003,73.800003,73.010002,73.330002,71.511337,325700
2017-02-03,73.769997,74.129997,73.500000,73.779999,71.950180,278200
2017-02-06,73.529999,74.019997,73.120003,73.349998,71.530830,254500
2017-02-07,73.339996,73.470001,72.650002,72.730003,70.926224,360800
2017-02-08,72.620003,73.699997,72.440002,73.550003,71.725891,397300
2017-02-09,73.370003,73.940002,73.160004,73.570000,71.745384,438000
2017-02-10,74.209999,76.199997,74.209999,74.790001,72.935127,1160100
2017-02-13,75.220001,75.440002,74.360001,74.430000,72.584061,440000
2017-02-14,74.400002,74.400002,73.720001,73.830002,71.998940,432000
2017-02-15,73.830002,73.919998,72.860001,73.199997,71.384560,522800
2017-02-16,73.400002,74.230003,73.400002,74.199997,72.359764,267000
2017-02-17,74.419998,74.550003,73.470001,73.900002,72.067207,318600
2017-02-21,73.910004,74.660004,73.860001,74.589996,72.740082,188600
2017-02-22,74.339996,74.809998,73.940002,74.260002,72.418274,204500
2017-02-23,74.470001,74.559998,74.040001,74.120003,72.281754,250600
2017-02-24,73.779999,74.489998,73.639999,74.360001,72.515793,232400
2017-02-27,74.099998,75.019997,74.099998,74.480003,72.632828,251800
2017-02-28,74.269997,74.650002,73.949997,74.510002,72.662071,390200
2017-03-01,75.209999,76.169998,74.919998,76.059998,74.173622,371000
2017-03-02,75.690002,76.070000,75.459999,75.809998,73.929825,327700
2017-03-03,75.529999,76.239998,75.529999,76.040001,74.154129,298400
2017-03-06,75.470001,76.089996,75.470001,75.650002,73.773811,302100
2017-03-07,75.540001,75.940002,75.180000,75.470001,73.598259,452700
2017-03-08,75.279999,76.059998,75.279999,75.940002,74.056602,435600
2017-03-09,75.879997,76.480003,75.589996,75.849998,73.968842,341200
2017-03-10,76.120003,77.000000,75.800003,76.790001,74.885529,435400
2017-03-13,76.800003,77.000000,76.160004,76.750000,74.846504,221900
2017-03-14,75.629997,77.019997,75.349998,76.529999,74.631973,265900
2017-03-15,76.919998,77.690002,76.830002,77.239998,75.324371,225600
2017-03-16,77.300003,77.529999,76.690002,76.980003,75.070816,186200
2017-03-17,76.900002,77.239998,76.589996,77.080002,75.168327,405100
2017-03-20,77.169998,77.870003,76.750000,77.839996,75.909492,247300
2017-03-21,77.720001,77.830002,76.629997,76.769997,74.866028,321300
2017-03-22,76.660004,77.080002,76.510002,76.849998,74.944031,130100
2017-03-23,76.830002,77.739998,76.320000,77.160004,75.246353,136400
2017-03-24,77.190002,77.650002,76.330002,76.620003,74.719749,154300
2017-03-27,75.809998,76.760002,75.809998,76.620003,74.719749,256200
2017-03-28,76.410004,77.279999,76.330002,77.070000,75.158592,237700
2017-03-29,77.110001,77.110001,76.489998,77.040001,75.129333,129300
2017-03-30,76.989998,77.379997,76.559998,76.860001,74.953804,141800
2017-03-31,76.900002,77.279999,76.419998,76.989998,75.080566,197200
2017-04-03,76.940002,77.459999,76.209999,76.449997,74.553955,424900
2017-04-04,76.500000,76.900002,75.949997,76.739998,74.836769,318700
2017-04-05,77.040001,77.040001,76.019997,76.080002,74.193138,372800
2017-04-06,75.940002,76.540001,75.489998,76.529999,74.631973,293700
2017-04-07,76.489998,76.790001,76.019997,76.160004,74.271149,214800
2017-04-10,75.940002,76.949997,75.919998,76.889999,74.983047,242100
2017-04-11,76.599998,76.970001,76.419998,76.919998,75.012314,263700
2017-04-12,76.889999,76.919998,76.040001,76.230003,74.339424,236800
2017-04-13,76.050003,76.589996,75.760002,75.800003,73.920090,164800
2017-04-17,76.029999,77.300003,75.879997,77.269997,75.353615,220500
2017-04-18,77.040001,77.680000,76.940002,77.570000,75.646194,196800
2017-04-19,77.870003,77.930000,77.510002,77.550003,75.626678,264800
2017-04-20,76.949997,78.320000,76.949997,77.820000,75.889984,354300
2017-04-21,78.180000,78.639999,77.099998,77.989998,76.055771,185200
2017-04-24,78.970001,78.970001,77.720001,78.300003,76.358086,250700
2017-04-25,78.349998,79.169998,77.620003,78.730003,76.777412,290500
2017-04-26,78.919998,79.500000,78.690002,79.339996,77.372269,343000
2017-04-27,79.199997,79.599998,78.430000,78.790001,76.835922,237600
2017-04-28,80.000000,80.529999,78.760002,80.300003,78.308472,637700
2017-05-01,80.080002,80.599998,79.209999,79.730003,78.063705,974600
2017-05-02,79.349998,80.680000,78.889999,80.199997,78.523880,450100
2017-05-03,79.889999,80.660004,79.500000,80.449997,78.768639,384500
2017-05-04,80.500000,81.720001,80.500000,81.389999,79.689011,488800
2017-05-05,81.400002,82.169998,81.320000,81.910004,80.198135,413400
2017-05-08,82.080002,82.610001,81.720001,82.510002,80.785606,374100
2017-05-09,82.610001,82.940002,82.110001,82.480003,80.756241,302600
2017-05-10,82.250000,83.040001,82.250000,82.870003,81.138077,308100
2017-05-11,82.489998,82.919998,81.820000,82.529999,80.805183,311500
2017-05-12,82.449997,82.820000,82.239998,82.430000,80.707268,227600
2017-05-15,82.430000,82.980003,82.190002,82.629997,80.903099,211900
2017-05-16,82.580002,82.800003,82.230003,82.790001,81.059753,210700
2017-05-17,82.790001,82.790001,81.849998,82.279999,80.560402,266100
2017-05-18,82.250000,82.400002,81.120003,82.139999,80.423325,325700
2017-05-19,82.190002,82.510002,81.820000,82.360001,80.638733,331900
2017-05-22,82.250000,82.980003,82.050003,82.839996,81.108704,238500
2017-05-23,83.000000,83.660004,82.970001,83.190002,81.451393,204100
2017-05-24,83.190002,83.519997,82.800003,83.389999,81.647202,187400
2017-05-25,83.620003,84.279999,83.260002,84.150002,82.391327,203200
2017-05-26,84.150002,84.629997,84.059998,84.370003,82.606735,158300
2017-05-30,84.129997,84.639999,83.800003,84.540001,82.773178,224400
2017-05-31,85.180000,85.180000,84.419998,85.010002,83.233353,285400
2017-06-01,85.250000,86.309998,85.010002,86.260002,84.457237,272600
2017-06-02,86.400002,86.730003,85.730003,86.330002,84.525772,170700
2017-06-05,86.099998,87.089996,85.779999,85.849998,84.055786,237600
2017-06-06,85.830002,85.830002,85.059998,85.480003,83.693535,342600
2017-06-07,85.110001,85.919998,85.059998,85.690002,83.899139,366600
2017-06-08,85.779999,85.989998,84.860001,85.250000,83.468338,185000
2017-06-09,85.300003,85.800003,85.180000,85.650002,83.859970,189800
2017-06-12,85.239998,85.980003,84.870003,85.440002,83.654366,239000
2017-06-13,85.860001,86.180000,85.480003,86.180000,84.378891,178500
2017-06-14,86.040001,86.769997,86.040001,86.250000,84.447433,212300
2017-06-15,85.519997,86.290001,84.900002,86.230003,84.427864,200000
2017-06-16,86.000000,86.360001,85.449997,85.949997,84.153694,450200
2017-06-19,86.320000,86.870003,85.930000,86.750000,84.936981,166600
2017-06-20,86.949997,87.180000,86.650002,86.889999,85.074059,240200
2017-06-21,86.919998,87.940002,86.550003,87.000000,85.181763,185800
2017-06-22,86.959999,87.360001,86.410004,86.820000,85.005524,166200
2017-06-23,86.830002,87.680000,86.330002,86.800003,84.985947,474300
2017-06-26,86.970001,87.589996,86.610001,87.139999,85.318825,307000
2017-06-27,87.000000,87.510002,86.339996,86.370003,84.564926,187900
2017-06-28,86.959999,87.370003,86.269997,86.930000,85.113220,169600
2017-06-29,86.870003,87.129997,85.779999,86.489998,84.682419,196100
2017-06-30,86.930000,87.330002,86.769997,86.860001,85.044685,238500
2017-07-03,87.209999,87.669998,86.889999,87.080002,85.260086,118800
2017-07-05,86.949997,87.500000,86.440002,87.290001,85.465698,243900
2017-07-06,86.830002,87.739998,86.690002,87.309998,85.485283,393900
2017-07-07,87.690002,88.550003,87.139999,88.089996,86.248978,245200
2017-07-10,87.949997,89.070000,87.480003,88.300003,86.454590,246000
2017-07-11,88.190002,88.580002,87.750000,88.169998,86.327301,180700
2017-07-12,88.860001,89.320000,88.430000,88.980003,87.120384,142400
2017-07-13,89.070000,89.269997,87.790001,88.629997,86.777687,278600
2017-07-14,89.120003,89.970001,88.919998,89.430000,87.560966,305900
2017-07-17,89.500000,89.970001,89.230003,89.790001,87.913452,299300
2017-07-18,89.400002,90.410004,89.080002,89.739998,87.864494,278500
2017-07-19,90.320000,90.790001,89.680000,90.089996,88.207169,395300
2017-07-20,90.269997,90.480003,89.529999,89.699997,87.825325,323100
2017-07-21,89.989998,89.989998,89.000000,89.510002,87.639305,271500
2017-07-24,88.940002,89.589996,88.589996,89.459999,87.904610,390200
2017-07-25,89.959999,89.959999,88.519997,88.690002,87.148010,596900
2017-07-26,88.779999,88.970001,87.989998,88.059998,86.528954,317800
2017-07-27,88.500000,88.500000,87.260002,88.000000,86.470001,328900
2017-07-28,83.400002,83.699997,80.830002,82.309998,80.878914,915000
2017-07-31,82.239998,83.500000,80.690002,80.930000,79.522911,962700
2017-08-01,81.000000,82.790001,80.980003,82.510002,81.075447,463400
2017-08-02,82.540001,82.750000,81.230003,82.250000,80.819969,348600
2017-08-03,82.300003,82.419998,81.820000,82.250000,80.819969,322100
2017-08-04,82.500000,82.779999,82.169998,82.360001,80.928055,168100
2017-08-07,82.550003,82.949997,82.389999,82.739998,81.301445,171600
2017-08-08,82.629997,82.930000,82.400002,82.739998,81.301445,163300
2017-08-09,82.500000,82.800003,82.239998,82.480003,81.045982,188900
2017-08-10,82.230003,82.739998,81.480003,81.510002,80.092834,265100
2017-08-11,82.349998,82.349998,81.410004,82.139999,80.711876,214100
2017-08-14,82.629997,83.000000,82.510002,82.910004,81.468491,147300
2017-08-15,82.739998,83.000000,82.550003,82.750000,81.311279,190900
2017-08-16,82.860001,83.830002,82.699997,83.550003,82.097366,248800
2017-08-17,83.269997,83.519997,82.120003,82.129997,80.702057,221700
2017-08-18,82.010002,82.300003,81.639999,82.150002,80.721710,191000
2017-08-21,82.059998,82.480003,81.339996,81.489998,80.073174,126300
2017-08-22,81.980003,82.290001,81.730003,82.120003,80.692230,190100
2017-08-23,81.750000,82.529999,81.489998,81.610001,80.191093,180500
2017-08-24,81.730003,82.059998,80.949997,81.080002,79.670311,180000
2017-08-25,81.500000,82.730003,81.500000,82.389999,80.957535,330100
2017-08-28,82.650002,82.779999,81.489998,81.860001,80.436745,241600
2017-08-29,81.900002,82.099998,81.570000,82.000000,80.574318,226300
2017-08-30,82.139999,83.180000,81.900002,82.970001,81.527451,207600
2017-08-31,83.180000,83.660004,82.720001,83.610001,82.156326,266700
2017-09-01,83.800003,84.000000,83.419998,83.879997,82.421616,183000
2017-09-05,83.720001,84.169998,83.180000,83.250000,81.802589,191900
2017-09-06,83.330002,83.330002,82.489998,82.849998,81.409531,240900
2017-09-07,82.959999,83.739998,82.320000,83.610001,82.156326,241000
2017-09-08,83.500000,84.180000,82.769997,83.820000,82.362671,207600
2017-09-11,84.320000,85.169998,84.000000,85.120003,83.640068,209800
2017-09-12,84.930000,85.440002,84.709999,85.199997,83.718674,214500
2017-09-13,84.610001,85.040001,84.370003,84.500000,83.030846,229000
2017-09-14,84.510002,85.099998,84.160004,84.870003,83.394417,166300
2017-09-15,84.739998,84.949997,84.480003,84.709999,83.237198,399800
2017-09-18,84.970001,85.669998,84.739998,85.440002,83.954506,198600
2017-09-19,85.430000,85.760002,84.949997,85.559998,84.072418,260300
2017-09-20,85.660004,86.239998,85.639999,86.120003,84.622673,167200
2017-09-21,86.080002,86.760002,85.870003,86.150002,84.652153,199600
2017-09-22,86.199997,86.269997,85.449997,85.720001,84.229637,189400
2017-09-25,85.750000,86.889999,85.349998,86.760002,85.251556,222800
2017-09-26,87.099998,87.320000,86.449997,86.750000,85.241722,199700
2017-09-27,86.800003,86.930000,86.209999,86.540001,85.035378,272900
2017-09-28,86.360001,87.510002,86.089996,87.080002,85.565994,228200
2017-09-29,87.019997,87.129997,86.300003,86.309998,84.809372,220700
2017-10-02,86.809998,87.970001,86.540001,87.879997,86.352081,264000
2017-10-03,87.900002,88.440002,87.900002,88.430000,86.892517,202100
2017-10-04,88.260002,88.849998,87.919998,88.139999,86.607559,231600
2017-10-05,88.510002,88.730003,87.620003,88.139999,86.607559,178900
2017-10-06,88.040001,88.629997,87.900002,88.580002,87.039909,162800
2017-10-09,88.680000,88.790001,88.330002,88.459999,86.921997,139400
2017-10-10,88.599998,88.870003,88.220001,88.470001,86.931816,186700
2017-10-11,88.480003,88.800003,88.190002,88.360001,86.823738,162500
2017-10-12,88.500000,88.709999,88.220001,88.489998,86.951477,168000
2017-10-13,88.690002,89.370003,88.690002,88.839996,87.295387,187100
2017-10-16,88.919998,88.940002,87.970001,88.940002,87.393661,236000
2017-10-17,89.300003,89.300003,88.709999,88.980003,87.432961,175200
2017-10-18,88.730003,89.370003,88.320000,88.599998,87.059563,207400
2017-10-19,88.510002,88.830002,88.349998,88.639999,87.098869,151600
2017-10-20,89.230003,89.309998,88.699997,89.199997,87.649124,134800
2017-10-23,89.160004,89.680000,88.919998,89.029999,87.482079,418900
2017-10-24,89.059998,89.629997,88.830002,89.120003,87.570534,189100
2017-10-25,89.070000,89.470001,87.690002,88.489998,86.951477,201800
2017-10-26,88.809998,89.239998,88.599998,88.940002,87.393661,234700
2017-10-27,89.400002,89.400002,85.889999,87.930000,86.401215,531500
2017-10-30,87.459999,87.589996,86.250000,86.459999,84.956764,260400
2017-10-31,86.250000,87.300003,86.120003,87.070000,85.874001,474700
2017-11-01,87.830002,88.120003,87.209999,87.410004,86.209320,279300
2017-11-02,87.089996,87.370003,86.320000,86.599998,85.410446,259200
2017-11-03,86.599998,87.180000,86.599998,86.940002,85.745781,216000
2017-11-06,87.019997,87.080002,85.680000,85.849998,84.670746,271600
2017-11-07,85.849998,86.110001,85.389999,85.720001,84.542542,326900
2017-11-08,85.680000,86.599998,85.639999,85.730003,84.552406,271400
2017-11-09,85.199997,85.419998,84.320000,84.760002,83.595726,146600
2017-11-10,84.349998,85.110001,84.220001,84.910004,83.743668,195800
2017-11-13,84.620003,85.760002,84.620003,85.589996,84.414322,156100
2017-11-14,85.379997,85.889999,85.160004,85.610001,84.434052,157400
2017-11-15,85.540001,85.980003,85.080002,85.480003,84.305840,182500
2017-11-16,85.739998,86.500000,85.599998,86.110001,84.927185,264400
2017-11-17,86.029999,86.239998,85.480003,85.650002,84.473503,171000
2017-11-20,85.610001,86.430000,85.320000,85.470001,84.295975,220200
2017-11-21,85.919998,86.820000,85.320000,86.540001,85.351280,506700
2017-11-22,86.610001,86.620003,85.790001,85.849998,84.670746,140300
2017-11-24,85.489998,86.339996,85.099998,86.250000,85.065262,108200
2017-11-27,86.370003,87.000000,86.370003,86.739998,85.548523,330900
2017-11-28,87.279999,87.470001,86.430000,86.910004,85.716194,194600
2017-11-29,87.110001,87.739998,87.080002,87.559998,86.357269,193900
2017-11-30,87.610001,88.900002,87.080002,88.410004,87.195587,232000
2017-12-01,88.330002,88.989998,86.440002,87.599998,86.396713,244300
2017-12-04,87.790001,88.699997,87.320000,88.059998,86.850395,290400
2017-12-05,88.330002,89.160004,87.889999,89.000000,87.777489,255800
2017-12-06,88.940002,88.940002,88.120003,88.169998,86.958885,251700
2017-12-07,88.449997,88.720001,87.790001,88.379997,87.166000,258900
2017-12-08,88.269997,88.500000,87.559998,87.900002,86.692596,251000
2017-12-11,87.870003,87.870003,86.860001,87.279999,86.081108,241200
2017-12-12,87.300003,87.540001,85.699997,86.430000,85.242783,424400
2017-12-13,86.050003,87.190002,85.760002,86.690002,85.499222,420900
2017-12-14,87.080002,87.209999,86.320000,86.370003,85.183609,302000
2017-12-15,86.589996,87.510002,86.589996,86.980003,85.785233,474900
2017-12-18,87.250000,87.889999,86.480003,86.570000,85.380867,251800
2017-12-19,86.300003,87.650002,86.300003,86.580002,85.390732,367200
2017-12-20,86.839996,87.129997,86.290001,86.330002,85.144165,189500
2017-12-21,86.400002,86.790001,85.720001,85.760002,84.581993,265400
2017-12-22,85.680000,86.360001,85.430000,85.900002,84.720078,162500
2017-12-26,85.790001,86.449997,85.220001,85.389999,84.217072,130500
2017-12-27,85.419998,85.820000,85.059998,85.620003,84.443909,114500
2017-12-28,85.849998,86.870003,85.660004,86.750000,85.558388,207000
2017-12-29,86.879997,87.000000,86.239998,86.279999,85.094849,148900
2018-01-02,86.440002,87.320000,86.080002,87.010002,85.814819,233300
2018-01-03,87.260002,87.610001,86.820000,87.190002,85.992355,177700
2018-01-04,87.209999,87.930000,85.800003,86.010002,84.828560,362900
2018-01-05,86.290001,87.449997,86.190002,86.910004,85.716194,209200
2018-01-08,86.860001,87.510002,86.570000,87.199997,86.002197,341200
2018-01-09,87.279999,87.760002,86.360001,86.389999,85.203331,282000
2018-01-10,86.099998,86.099998,85.160004,85.669998,84.493217,161400
2018-01-11,85.440002,86.489998,85.440002,86.250000,85.065262,311600
2018-01-12,86.370003,86.940002,85.879997,86.559998,85.371002,179400
2018-01-16,86.360001,87.209999,86.010002,86.239998,85.055389,254000
2018-01-17,86.769997,87.279999,86.510002,86.839996,85.647148,250400
2018-01-18,86.849998,87.320000,86.349998,87.239998,86.041649,220800
2018-01-19,87.300003,88.699997,87.300003,88.610001,87.392845,177500
2018-01-22,88.610001,88.610001,86.599998,87.459999,86.258636,369900
2018-01-23,87.440002,87.750000,86.910004,87.599998,86.396713,158800
2018-01-24,87.809998,88.599998,86.349998,88.199997,86.988464,255000
2018-01-25,88.400002,89.430000,88.129997,89.430000,88.201576,339100
2018-01-26,89.480003,89.500000,88.459999,89.139999,87.915565,206300
2018-01-29,88.730003,89.230003,87.540001,87.730003,86.524940,254300
2018-01-30,87.449997,87.959999,87.050003,87.690002,86.802101,345000
2018-01-31,88.089996,88.099998,86.760002,87.419998,86.534828,519100
2018-02-01,87.239998,87.629997,85.809998,86.839996,85.960693,220800
2018-02-02,86.529999,86.910004,85.540001,85.800003,84.931236,217000
2018-02-05,85.099998,86.000000,83.379997,83.379997,82.535736,434200
2018-02-06,82.379997,83.889999,81.410004,83.790001,82.941589,352300
2018-02-07,83.809998,84.910004,83.730003,83.849998,83.000977,304100
2018-02-08,83.860001,84.820000,81.360001,81.379997,80.555984,349100
2018-02-09,82.089996,82.589996,79.970001,82.160004,81.328087,367200
2018-02-12,82.559998,83.449997,81.589996,82.599998,81.763634,303000
2018-02-13,86.750000,92.320000,86.300003,89.720001,88.811546,1102000
2018-02-14,89.580002,90.870003,88.739998,90.660004,89.742027,512100
2018-02-15,90.180000,91.970001,90.180000,91.169998,90.246857,333300
2018-02-16,91.040001,92.139999,90.489998,91.830002,90.900177,335500
2018-02-20,91.239998,92.190002,90.720001,91.059998,90.137970,372000
2018-02-21,91.339996,92.279999,90.110001,90.160004,89.247086,283200
2018-02-22,90.440002,91.459999,90.309998,90.610001,89.692528,255300
2018-02-23,90.739998,91.070000,89.930000,90.989998,90.068672,249400
2018-02-26,91.279999,91.480003,90.389999,90.779999,89.860802,250300
2018-02-27,90.730003,90.730003,89.440002,89.500000,88.593773,286500
2018-02-28,89.730003,90.410004,89.209999,89.419998,88.514580,306900
2018-03-01,89.239998,90.489998,88.309998,89.000000,88.098839,241900
2018-03-02,88.739998,89.889999,88.300003,89.680000,88.771942,270600
2018-03-05,89.309998,90.699997,89.309998,90.400002,89.484657,231200
2018-03-06,90.370003,91.050003,89.279999,90.769997,89.850906,295800
2018-03-07,89.980003,91.139999,89.709999,90.139999,89.227295,317500
2018-03-08,90.400002,90.830002,89.449997,89.949997,89.039207,368000
2018-03-09,89.940002,90.949997,89.559998,90.870003,89.949898,283100
2018-03-12,90.699997,90.989998,90.400002,90.779999,89.860802,181100
2018-03-13,91.269997,92.099998,90.269997,90.500000,89.583649,257500
2018-03-14,90.959999,91.269997,89.430000,90.070000,89.157997,266900
2018-03-15,90.139999,90.570000,89.800003,90.279999,89.365868,239600
2018-03-16,90.349998,91.129997,89.760002,90.150002,89.237183,424800
2018-03-19,90.059998,90.360001,89.449997,89.959999,89.049110,155000
2018-03-20,90.019997,90.489998,89.669998,89.779999,88.870934,247700
2018-03-21,89.709999,90.339996,89.389999,89.589996,88.682854,266300
2018-03-22,89.220001,89.910004,87.930000,87.959999,87.069359,260900
2018-03-23,87.940002,87.940002,86.690002,86.769997,85.891411,215900
2018-03-26,87.660004,88.550003,87.070000,88.209999,87.316833,278900
2018-03-27,88.519997,89.129997,87.620003,88.080002,87.188148,253200
2018-03-28,88.080002,88.900002,87.820000,88.360001,87.465317,194000
2018-03-29,88.879997,90.339996,88.360001,89.830002,88.920433,287300
2018-04-02,89.370003,89.739998,87.169998,87.930000,87.039665,184400
2018-04-03,88.430000,90.169998,87.690002,89.559998,88.653160,336600
2018-04-04,88.919998,89.949997,86.849998,89.709999,88.801643,276500
2018-04-05,90.300003,90.849998,89.279999,90.400002,89.484657,276400
2018-04-06,89.690002,90.360001,88.230003,88.500000,87.603897,362200
2018-04-09,89.150002,90.339996,88.599998,89.900002,88.989723,471500
2018-04-10,90.750000,93.099998,90.099998,92.720001,91.781166,455600
2018-04-11,91.970001,92.639999,91.750000,92.250000,91.315918,250800
2018-04-12,92.760002,93.250000,92.480003,92.699997,91.761360,221500
2018-04-13,93.199997,93.330002,92.459999,92.750000,91.810860,262600
2018-04-16,93.029999,94.660004,92.959999,94.309998,93.355064,196900
2018-04-17,94.279999,96.389999,93.790001,96.129997,95.156631,507200
2018-04-18,96.150002,96.199997,95.180000,95.610001,94.641907,346800
2018-04-19,95.050003,95.879997,94.540001,94.800003,93.840111,165000
2018-04-20,95.110001,95.139999,94.120003,94.440002,93.483757,217800
2018-04-23,94.709999,95.430000,94.099998,94.349998,93.394661,189500
2018-04-24,94.599998,94.699997,92.769997,93.180000,92.236511,401900
2018-04-25,93.019997,93.949997,92.370003,93.150002,92.206818,298700
2018-04-26,93.180000,93.699997,92.599998,93.279999,92.335487,417000
2018-04-27,93.750000,94.739998,91.879997,93.459999,92.513672,407500
2018-04-30,93.730003,93.989998,93.050003,93.500000,92.553268,907800
2018-05-01,93.449997,93.870003,92.730003,93.540001,92.592865,427800
2018-05-02,94.000000,94.000000,92.470001,92.559998,91.622780,631100
2018-05-03,92.250000,92.830002,90.980003,91.120003,90.197372,560200
2018-05-04,90.839996,92.769997,90.839996,92.260002,91.325821,339900
2018-05-07,92.370003,93.290001,92.300003,92.800003,91.860352,215100
2018-05-08,92.769997,92.790001,91.550003,91.760002,91.145180,284600
2018-05-09,92.000000,93.059998,91.370003,92.959999,92.337135,255500
2018-05-10,93.099998,93.940002,93.050003,93.790001,93.161575,377900
2018-05-11,93.750000,94.320000,93.150002,94.290001,93.658226,492900
2018-05-14,94.190002,94.709999,92.290001,93.370003,92.744392,477500
2018-05-15,93.169998,93.169998,91.589996,92.099998,91.482895,406400
2018-05-16,92.320000,93.769997,91.919998,93.540001,92.913246,257600
2018-05-17,93.669998,93.919998,93.050003,93.290001,92.664925,242600
2018-05-18,92.559998,94.279999,92.379997,93.559998,92.933113,272300
2018-05-21,94.019997,94.410004,93.839996,94.010002,93.380104,162300
2018-05-22,94.279999,94.949997,93.669998,93.959999,93.330437,165300
2018-05-23,93.629997,94.269997,93.360001,94.089996,93.459557,163700
2018-05-24,94.120003,94.480003,93.580002,94.029999,93.399963,116200
2018-05-25,93.879997,94.419998,93.849998,94.080002,93.449638,154900
2018-05-29,93.459999,94.010002,93.059998,93.309998,92.684784,212700
2018-05-30,92.699997,94.410004,92.699997,93.959999,93.330437,258600
2018-05-31,94.250000,94.389999,92.190002,92.320000,91.701424,151900
2018-06-01,92.879997,93.290001,92.470001,92.769997,92.148407,174800
2018-06-04,93.110001,93.900002,92.440002,93.860001,93.231102,172100
2018-06-05,94.059998,94.500000,93.559998,93.919998,93.290703,114800
2018-06-06,93.669998,94.099998,92.040001,93.910004,93.280769,437300
2018-06-07,93.830002,94.430000,92.440002,93.239998,92.615257,534000
2018-06-08,93.050003,93.900002,92.980003,93.660004,93.032448,290600
2018-06-11,93.790001,94.860001,93.430000,93.820000,93.191376,389400
2018-06-12,94.089996,94.889999,93.599998,94.150002,93.519165,455100
2018-06-13,94.550003,95.000000,94.050003,94.320000,93.688019,321400
2018-06-14,94.809998,95.260002,94.260002,94.860001,94.224403,320400
2018-06-15,95.000000,95.370003,94.389999,94.919998,94.283997,505200
2018-06-18,94.570000,95.080002,94.019997,94.839996,94.204536,347300
2018-06-19,93.949997,94.620003,93.610001,94.250000,93.618492,333700
2018-06-20,94.169998,94.870003,93.940002,94.639999,94.005882,285600
2018-06-21,94.510002,94.610001,92.949997,93.099998,92.476196,296900
2018-06-22,93.279999,93.489998,92.339996,92.629997,92.009346,681100
2018-06-25,92.769997,93.199997,91.419998,92.180000,91.562363,348700
2018-06-26,92.349998,93.449997,92.019997,92.709999,92.088806,266700
2018-06-27,92.779999,93.910004,92.070000,92.099998,91.482895,295800
2018-06-28,92.000000,92.760002,91.660004,92.709999,92.088806,251300
2018-06-29,93.199997,94.120003,92.930000,93.379997,92.754318,335800
2018-07-02,92.910004,93.769997,92.459999,93.589996,92.962914,237500
2018-07-03,93.959999,95.029999,93.610001,93.989998,93.360237,178000
2018-07-05,94.489998,94.540001,93.449997,94.540001,93.906555,249900
2018-07-06,94.220001,94.379997,93.720001,94.080002,93.449638,238000
2018-07-09,94.449997,95.629997,94.449997,95.099998,94.462799,188700
2018-07-10,95.169998,96.160004,95.169998,96.110001,95.466034,216100
2018-07-11,95.610001,96.370003,95.110001,95.680000,95.038910,220800
2018-07-12,96.000000,96.830002,95.589996,95.739998,95.098511,196700
2018-07-13,95.360001,96.190002,94.660004,94.870003,94.234344,205300
2018-07-16,94.769997,94.879997,93.169998,93.290001,92.664925,132000
2018-07-17,93.220001,94.739998,93.160004,94.639999,94.005882,155400
2018-07-18,94.639999,95.180000,94.180000,94.620003,93.986015,150000
2018-07-19,94.699997,96.540001,94.699997,96.330002,95.684555,213300
2018-07-20,95.940002,96.160004,95.330002,95.779999,95.138237,192600
2018-07-23,95.940002,96.330002,94.790001,95.139999,94.502533,195800
2018-07-24,95.339996,95.860001,94.529999,94.750000,94.115143,225300
2018-07-25,94.570000,95.000000,94.050003,94.730003,94.095284,182300
2018-07-26,94.879997,96.379997,94.559998,96.070000,95.426292,170300
2018-07-27,98.000000,103.029999,97.150002,102.900002,102.210541,626000
2018-07-30,103.519997,104.099998,99.940002,102.500000,101.813217,531800
2018-07-31,102.480003,103.480003,100.779999,102.430000,102.082298,588100
2018-08-01,102.400002,102.680000,101.410004,102.430000,102.082298,301400
2018-08-02,101.639999,103.580002,101.309998,102.980003,102.630432,327400
2018-08-03,102.989998,104.500000,102.849998,104.099998,103.746628,300200
2018-08-06,104.010002,104.949997,103.980003,104.209999,103.856255,279500
2018-08-07,104.160004,104.680000,103.389999,103.550003,103.198502,296500
2018-08-08,103.339996,103.980003,102.870003,102.959999,102.610497,277900
2018-08-09,103.110001,104.070000,103.000000,103.900002,103.547310,265500
2018-08-10,103.370003,104.040001,102.160004,102.379997,102.032463,325600
2018-08-13,102.239998,103.470001,100.940002,101.400002,101.055794,227800
2018-08-14,101.889999,102.500000,101.330002,101.980003,101.633827,176500
2018-08-15,101.559998,101.660004,100.059998,101.339996,100.995995,300500
2018-08-16,101.620003,102.160004,101.349998,101.669998,101.324875,276300
2018-08-17,101.680000,102.989998,101.400002,102.760002,102.411179,131800
2018-08-20,102.919998,103.519997,102.599998,102.860001,102.510841,198600
2018-08-21,102.830002,103.849998,102.830002,103.290001,102.939377,209600
2018-08-22,103.320000,103.400002,102.739998,103.180000,102.829750,103300
2018-08-23,103.320000,103.550003,102.760002,102.910004,102.560669,124400
2018-08-24,102.980003,104.139999,102.980003,103.800003,103.447647,127300
2018-08-27,103.790001,104.839996,103.790001,104.540001,104.185135,175400
2018-08-28,104.559998,105.190002,103.809998,103.889999,103.537338,214900
2018-08-29,104.199997,105.169998,103.769997,104.699997,104.344589,199700
2018-08-30,104.860001,105.769997,103.820000,104.699997,104.344589,231900
2018-08-31,104.620003,105.440002,104.379997,104.709999,104.354553,153000
2018-09-04,105.320000,106.500000,104.580002,106.379997,106.018883,323600
2018-09-05,106.279999,108.779999,106.279999,108.180000,107.812782,334100
2018-09-06,108.400002,109.690002,108.129997,108.949997,108.580162,228400
2018-09-07,108.940002,108.940002,107.790001,107.900002,107.533730,258500
2018-09-10,108.389999,109.080002,107.889999,108.559998,108.191483,212400
2018-09-11,108.260002,108.730003,107.540001,108.519997,108.151619,101600
2018-09-12,108.360001,109.629997,108.120003,109.389999,109.018669,154700
2018-09-13,108.750000,110.900002,108.669998,110.820000,110.443817,273900
2018-09-14,110.769997,112.160004,109.790001,111.970001,111.589912,424200
2018-09-17,112.300003,112.309998,110.910004,111.300003,110.922188,564500
2018-09-18,111.199997,111.790001,109.970001,111.589996,111.211197,202600
2018-09-19,111.669998,111.900002,110.529999,111.129997,110.752762,204300
2018-09-20,111.279999,111.510002,110.190002,110.489998,110.114937,204500
2018-09-21,110.169998,110.849998,109.669998,110.320000,109.945511,473200
2018-09-24,110.199997,111.470001,109.989998,110.379997,110.005310,352400
2018-09-25,110.750000,110.959999,108.620003,108.760002,108.390808,279000
2018-09-26,108.660004,109.489998,108.370003,108.599998,108.231354,629100
2018-09-27,108.599998,109.190002,108.160004,108.339996,107.972229,255600
2018-09-28,108.209999,108.889999,107.550003,107.739998,107.374268,416900
2018-10-01,108.050003,109.199997,107.370003,107.769997,107.404167,208600
2018-10-02,107.930000,108.610001,107.599998,108.150002,107.782883,210300
2018-10-03,108.510002,108.629997,107.529999,108.000000,107.633392,361200
2018-10-04,107.790001,107.790001,106.300003,107.089996,106.726471,273300
2018-10-05,107.169998,107.639999,106.959999,107.169998,106.806206,220800
2018-10-08,107.120003,107.849998,106.839996,107.669998,107.304504,164700
2018-10-09,107.389999,107.389999,105.680000,105.720001,105.361130,277500
2018-10-10,105.300003,105.769997,102.120003,102.419998,102.072327,456000
2018-10-11,102.370003,103.459999,101.459999,101.570000,101.225212,312700
2018-10-12,102.680000,103.360001,100.339996,101.650002,101.304947,399100
2018-10-15,101.669998,102.959999,101.050003,102.150002,101.803246,239600
2018-10-16,102.660004,105.769997,102.660004,105.599998,105.241531,231300
2018-10-17,106.089996,106.089996,104.419998,105.019997,104.663498,180900
2018-10-18,104.730003,105.239998,103.830002,104.269997,103.916046,439900
2018-10-19,104.589996,105.209999,104.279999,104.320000,103.965881,271800
2018-10-22,104.610001,104.739998,103.050003,103.970001,103.617073,199300
2018-10-23,102.730003,104.570000,101.720001,103.680000,103.328056,479500
2018-10-24,103.629997,103.820000,99.879997,100.080002,99.740273,498300
2018-10-25,100.879997,101.970001,100.510002,101.290001,100.946167,299800
2018-10-26,100.449997,101.050003,99.309998,100.360001,100.019325,423800
2018-10-29,101.320000,102.070000,99.139999,100.160004,99.820007,271300
2018-10-30,100.040001,101.410004,99.339996,101.370003,101.370003,318600
2018-10-31,102.430000,103.070000,101.849998,101.959999,101.959999,417100
2018-11-01,102.690002,103.470001,102.389999,103.180000,103.180000,392600
2018-11-02,97.050003,105.330002,95.059998,103.800003,103.800003,959300
2018-11-05,103.989998,104.480003,101.250000,101.879997,101.879997,481500
2018-11-06,101.639999,104.769997,101.489998,104.099998,104.099998,381300
2018-11-07,104.879997,105.260002,103.339996,105.110001,105.110001,340200
2018-11-08,104.949997,105.769997,104.599998,105.129997,105.129997,368400
2018-11-09,104.959999,105.800003,103.129997,104.290001,104.290001,227100
2018-11-12,104.160004,104.349998,101.580002,101.769997,101.769997,343100
2018-11-13,102.330002,103.459999,101.540001,102.379997,102.379997,225200
2018-11-14,103.040001,103.910004,101.709999,102.080002,102.080002,163200
2018-11-15,101.550003,104.830002,101.209999,104.790001,104.790001,261000
2018-11-16,104.190002,107.150002,104.190002,106.279999,106.279999,235400
2018-11-19,106.199997,106.650002,104.709999,105.180000,105.180000,192700
2018-11-20,104.620003,105.430000,103.370003,104.309998,104.309998,246800
2018-11-21,104.680000,105.190002,103.150002,103.500000,103.500000,221600
2018-11-23,103.000000,104.419998,102.980003,103.900002,103.900002,75400
2018-11-26,104.720001,104.989998,102.949997,103.690002,103.690002,231700
2018-11-27,103.300003,103.320000,102.089996,102.300003,102.300003,213400
2018-11-28,102.800003,104.070000,101.680000,104.029999,104.029999,327800
2018-11-29,103.720001,104.930000,103.690002,103.849998,103.849998,238400
2018-11-30,103.660004,104.550003,103.250000,104.050003,104.050003,330400
2018-12-03,105.230003,105.510002,102.449997,104.459999,104.459999,292000
2018-12-04,104.860001,104.860001,102.830002,102.940002,102.940002,273100
2018-12-06,102.000000,102.000000,98.349998,101.629997,101.629997,302900
2018-12-07,100.889999,102.849998,99.099998,99.769997,99.769997,226100
2018-12-10,99.430000,99.860001,98.220001,99.110001,99.110001,161100
2018-12-11,100.099998,101.019997,98.279999,98.669998,98.669998,192600
2018-12-12,100.099998,100.940002,99.750000,99.930000,99.930000,240900
2018-12-13,100.419998,101.269997,99.510002,100.320000,100.320000,167800
2018-12-14,100.040001,100.959999,99.129997,100.339996,100.339996,187100
2018-12-17,99.839996,100.650002,98.040001,98.639999,98.639999,313900
2018-12-18,99.430000,100.269997,97.269997,97.940002,97.940002,231000
2018-12-19,98.279999,98.839996,95.269997,95.589996,95.589996,268300
2018-12-20,95.510002,96.150002,93.669998,95.010002,95.010002,248100
2018-12-21,94.760002,96.610001,93.510002,93.550003,93.550003,588800
2018-12-24,92.860001,92.860001,89.669998,89.699997,89.699997,168300
2018-12-26,89.720001,92.010002,89.720001,91.769997,91.769997,394400
2018-12-27,90.699997,92.480003,90.010002,92.370003,92.370003,467500
2018-12-28,92.599998,93.910004,92.050003,92.699997,92.699997,437400
2018-12-31,92.820000,94.070000,92.660004,94.070000,94.070000,246900
2019-01-02,92.730003,92.730003,89.449997,90.180000,90.180000,517500
2019-01-03,88.970001,90.209999,88.260002,89.089996,89.089996,637200
2019-01-04,90.099998,91.900002,89.290001,91.070000,91.070000,433600
2019-01-07,90.599998,93.489998,90.580002,91.949997,91.949997,525400
2019-01-08,92.820000,94.099998,91.760002,93.519997,93.519997,379600
2019-01-09,93.860001,94.199997,93.209999,93.480003,93.480003,195700
2019-01-10,93.139999,94.820000,93.129997,94.580002,94.580002,205800
2019-01-11,94.669998,94.750000,93.430000,94.730003,94.730003,248200
2019-01-14,94.279999,94.849998,93.739998,93.959999,93.959999,210500
2019-01-15,93.970001,95.400002,93.900002,94.809998,94.809998,213900
2019-01-16,94.820000,95.349998,94.389999,94.709999,94.709999,187100
2019-01-17,94.389999,96.169998,94.379997,95.930000,95.930000,265500
2019-01-18,96.099998,97.970001,95.879997,97.690002,97.690002,237400
2019-01-22,97.419998,98.250000,95.120003,96.440002,96.440002,304000
