Date,Open,High,Low,Close,Adj Close,Volume,rel_short,rel_mid,rel_long
2016-04-28,79.75,80.32,79.0,79.290001,76.363419,575500,-0.036135525879099184,,
2016-04-29,77.220001,77.959999,75.709999,76.0,73.194862,777800,-0.05038131371791721,,
2016-05-02,75.779999,77.33000200000001,75.650002,76.849998,74.013489,478800,-0.030461672457399835,,
2016-05-03,76.389999,76.5,75.599998,75.75,72.954086,836200,-0.039350953408354705,,
2016-05-04,75.25,75.900002,75.010002,75.559998,72.771088,574200,-0.029031585581952513,,
2016-05-05,75.540001,76.480003,75.120003,76.059998,73.25263199999999,307100,-0.02961739821659304,,
2016-05-06,76.0,76.550003,75.720001,76.279999,73.464523,222400,-0.038495941540256595,,
2016-05-09,76.16999799999999,76.82,75.660004,76.550003,73.724571,365700,-0.03318537346780204,-0.02688599899177113,
2016-05-10,76.730003,77.300003,76.309998,77.08000200000001,74.235001,196600,-0.04355143908910275,0.004909846168822618,
2016-05-11,77.07,77.66999799999999,76.68,76.83000200000001,73.994225,251800,-0.0316473287011263,0.007926141951739574,
2016-05-12,77.32,77.980003,77.08000200000001,77.629997,74.764709,219900,-0.03212539373442702,0.02415711702644785,
2016-05-13,77.339996,77.339996,76.510002,76.970001,74.129074,202900,-0.03466933669306016,0.020690367541899235,
2016-05-16,77.08000200000001,77.790001,76.629997,77.400002,74.54319,169500,-0.0432532253466027,0.009677780922595858,
2016-05-17,77.260002,77.41999799999999,75.239998,75.400002,72.61700400000001,446800,-0.0533055297925058,-0.006764755035261416,
2016-05-18,75.120003,76.089996,74.83000200000001,75.25,72.472534,337400,-0.037467687879706446,-0.011741686766814752,
2016-05-19,74.760002,75.480003,74.160004,74.849998,72.087303,253100,-0.034363130104306805,-0.007851063855420115,
2016-05-20,75.309998,75.779999,74.970001,75.33000200000001,72.549591,301700,-0.0424424988874339,-0.013818929384224354,
2016-05-23,75.489998,75.629997,74.730003,74.790001,72.029526,206200,-0.044880312597018523,-0.029453915212437565,
2016-05-24,75.239998,76.559998,75.150002,76.379997,73.560829,257900,-0.03391060996737316,-0.02198228419460957,
2016-05-25,76.349998,76.860001,76.08000200000001,76.349998,73.531952,173400,-0.043177091525194555,-0.025147345581157055,
2016-05-26,76.519997,76.760002,75.959999,76.43,73.608986,140300,-0.038144157569334425,-0.007166085697261515,
2016-05-27,76.519997,77.190002,76.18,77.139999,74.292778,246300,-0.03383521055632954,-5.265850928637406e-07,
2016-05-31,77.220001,77.540001,76.83000200000001,77.260002,74.40835600000001,267700,-0.03557494924335103,0.004175871154846966,
2016-06-01,76.860001,77.209999,76.07,77.209999,74.360191,194600,-0.035635719504526264,0.002002999956401297,
2016-06-02,77.150002,77.349998,76.790001,77.349998,74.49503299999999,222600,-0.03861187746167616,0.006100611316504079,
2016-06-03,77.57,77.790001,76.940002,77.199997,74.350571,145100,-0.040038722569059715,-0.00037233901370470335,
2016-06-06,77.309998,78.029999,76.790001,77.089996,74.244629,184800,-0.044533553045532415,0.0006595841721095397,
2016-06-07,77.029999,77.910004,77.029999,77.489998,74.629868,170000,-0.032577782871007877,0.003288788766616868,
2016-06-08,77.589996,78.550003,77.120003,77.720001,74.851372,128100,-0.038963558909411056,-0.002020615572235762,-0.04064882791591451
2016-06-09,77.400002,77.870003,77.18,77.790001,74.918808,123400,-0.032501519373659526,-0.0019611231827330045,-0.0007264697144835353
2016-06-10,77.400002,78.199997,77.400002,78.199997,75.313652,274700,-0.020905414406750644,0.0142947764675041,0.010404988991420616
2016-06-13,77.75,78.08000200000001,76.620003,76.779999,73.946075,261800,-0.04407730038704294,0.0051267421531520085,0.005930555283666372
2016-06-14,76.83000200000001,76.959999,76.099998,76.440002,73.61863699999999,246100,-0.0420564213228074,0.001514387031364528,-0.00014986863505050962
2016-06-15,76.5,76.959999,76.059998,76.32,73.503059,213300,-0.03702327043123521,0.008096849314862986,-0.006713131171588671
2016-06-16,76.059998,76.940002,75.660004,76.5,73.676399,285400,-0.03745237743542962,0.0034375008817404407,-0.007204551084165622
2016-06-17,76.220001,76.599998,75.790001,76.349998,73.531952,351300,-0.03253955650901652,0.005078763887726545,-0.008684065036416833
2016-06-20,77.18,77.980003,77.18,77.620003,74.755066,140800,-0.03561187756315398,0.013164568773813556,0.007528252890507403
2016-06-21,77.620003,78.220001,77.470001,77.68,74.812851,213400,-0.038613104371431284,-0.0032451142275089495,-0.000766267187827907
2016-06-22,77.910004,78.309998,77.620003,78.309998,75.41959399999999,162800,-0.03042745126408697,0.0166622583441125,-0.0015643033986689758
2016-06-23,79.08000200000001,80.139999,79.08000200000001,80.139999,77.182053,368500,-0.034050364777449715,0.029123930758697902,0.008283694581748158
2016-06-24,77.199997,78.099998,76.540001,76.75,73.917168,461600,-0.011383698665770048,0.022211662980170743,0.0058207508859862145
2016-06-27,75.93,75.970001,74.269997,74.599998,71.84652700000001,327800,-0.03994695262576453,0.012833669220657207,0.012393873171753
2016-06-28,74.900002,75.690002,74.529999,75.690002,72.896301,216300,-0.04167065186606589,0.008424370453393948,0.011481992183791867
2016-06-29,76.550003,76.949997,75.949997,76.720001,73.88829,198000,-0.049042793916366456,-0.005653978689970529,0.009725338055956989
2016-06-30,76.959999,79.150002,76.760002,79.129997,76.209328,395900,-0.022117515410055688,0.013737368415726259,0.026790030612122706
2016-07-01,78.989998,79.730003,78.5,79.16999799999999,76.247856,169300,-0.03704998584092234,0.002565726657981493,0.030455338471750082
2016-07-05,78.849998,79.099998,77.800003,78.720001,75.814468,207000,-0.036150768828003166,-0.006087676731247882,0.024178302045109845
2016-07-06,78.660004,78.82,77.970001,78.739998,75.833733,192300,-0.04390494936901401,-0.00453124031629315,0.02643685615085012
2016-07-07,78.889999,79.33000200000001,78.279999,78.489998,75.592941,155400,-0.041491068706837275,0.0033109971949434325,0.022870956063957948
2016-07-08,79.269997,79.849998,79.099998,79.790001,76.844963,132300,-0.0418938859807394,0.007708328667885844,0.019190847436770575
2016-07-11,80.08000200000001,80.470001,79.879997,80.199997,77.239838,144500,-0.03865945146364158,0.01280372694671339,0.018353193847823412
2016-07-12,80.75,81.16999799999999,80.360001,80.410004,77.44207800000001,143800,-0.047718175169669586,-0.009021848674044541,0.015765181981676868
2016-07-13,80.769997,80.91999799999999,80.08000200000001,80.230003,77.268745,188000,-0.04367504286954649,-0.009956064290485678,0.014398662864760325
2016-07-14,80.800003,81.0,79.860001,80.190002,77.230209,134100,-0.04790293735790918,-0.01687121511873002,0.007679425940084528
2016-07-15,80.110001,80.629997,79.91999799999999,79.91999799999999,76.970169,164500,-0.038415868042587675,-0.014229981664448665,0.011547290314291914
2016-07-18,79.91999799999999,80.540001,79.58000200000001,79.910004,76.96055600000001,93400,-0.03997375044467333,-0.014425987729062228,0.005156179568278851
2016-07-19,79.860001,80.089996,79.220001,79.620003,76.681252,87100,-0.04061324236492769,-0.017914400312892376,0.0032970626961139615
2016-07-20,79.559998,80.720001,79.559998,80.300003,77.336159,191200,-0.03153936121767664,-0.015393849703715823,0.004920467326840594
2016-07-21,80.059998,80.57,79.730003,79.940002,76.989441,132500,-0.035539647767029336,-0.011898191764803556,-0.010427786250630788
2016-07-22,79.91999799999999,80.790001,79.910004,80.459999,77.49025,140900,-0.03481735670689545,-0.007582484079065921,0.001689436632542396
2016-07-25,80.040001,80.400002,79.800003,79.949997,77.287231,235000,-0.03258885270898482,-0.0014455589664494894,0.00471947994227051
2016-07-26,79.879997,80.720001,79.879997,80.300003,77.625587,185200,-0.02872516625448629,0.005043434752282749,0.008493875751711677
2016-07-27,80.739998,80.739998,79.279999,79.720001,77.06489599999999,321300,-0.045096508694595805,0.0014978282541102672,0.003216506940648678
2016-07-28,79.709999,79.989998,78.970001,79.379997,76.736221,239100,-0.03987078565713187,-0.00218154472950971,-0.003963245921122294
2016-07-29,79.91999799999999,81.5,77.110001,78.18,75.576187,730500,-0.05808179913265654,-0.02328728424468185,-0.03153138569165481
2016-08-01,78.139999,78.139999,77.0,77.339996,74.76416800000001,302600,-0.0430998912301801,-0.03194493548260535,-0.03912760750572719
2016-08-02,77.230003,77.230003,75.940002,76.610001,74.058479,406600,-0.03596578230344072,-0.03698690219936118,-0.05195972391093129
2016-08-03,76.709999,76.970001,76.25,76.620003,74.068161,213500,-0.03827732729018507,-0.04037787023895589,-0.06478232105538329
2016-08-04,76.739998,77.489998,76.540001,76.779999,74.222824,171800,-0.03369332848424467,-0.04255009477851068,-0.05626788200696975
2016-08-05,77.300003,77.32,76.449997,76.589996,74.039146,217700,-0.04957119305808355,-0.0475445736369533,-0.05716173591696183
2016-08-08,76.709999,77.589996,75.989998,76.16999799999999,73.63314100000001,185000,-0.03962169021355244,-0.04625678686930268,-0.05864440324381892
2016-08-09,76.260002,76.599998,75.720001,75.980003,73.449471,153000,-0.03732173161662278,-0.03228144115287268,-0.058158848154556964
2016-08-10,76.07,76.33000200000001,75.839996,76.220001,73.681473,133000,-0.02854344271164777,-0.016727041133976606,-0.06959201705543006
2016-08-11,76.58000200000001,76.860001,75.870003,76.099998,73.56546,185000,-0.043744450174138194,-0.01992446391649061,-0.07444991448540339
2016-08-12,75.989998,76.099998,75.349998,75.58000200000001,73.062775,99200,-0.039424698467763974,-0.02298640276898034,-0.08168104709311574
2016-08-15,75.870003,76.08000200000001,75.480003,75.5,72.985458,103000,-0.04062114166581754,-0.028707596901102583,-0.08044423859177918
2016-08-16,75.589996,75.639999,75.08000200000001,75.160004,72.656769,186000,-0.035870066911575016,-0.01668266426414977,-0.07715539737605503
2016-08-17,75.220001,75.82,75.010002,75.790001,73.265778,179400,-0.02833263595979396,-0.0056112783588195825,-0.07196401027052435
2016-08-18,75.800003,76.83000200000001,75.620003,76.83000200000001,74.271149,220900,-0.022719643897922026,0.008707694971873181,-0.06225488012939717
2016-08-19,76.459999,76.989998,76.239998,76.779999,74.222824,209400,-0.02952665973685953,0.0034756563988747047,-0.05709451198251081
2016-08-22,76.769997,77.220001,76.400002,77.099998,74.53215,144600,-0.030069007434798678,0.01449718665412636,-0.04999666354079135
2016-08-23,77.410004,77.93,77.269997,77.339996,74.76416800000001,312400,-0.03436119075475741,0.021715732375245267,-0.043094099599140456
2016-08-24,77.220001,77.739998,77.220001,77.58000200000001,74.996185,185900,-0.02479511611726881,0.03391610382813148,-0.032298153099199034
2016-08-25,77.43,78.540001,77.43,78.07,75.469841,219500,-0.02526377227233656,0.0405976530081702,-0.02213175663882261
2016-08-26,78.050003,79.07,78.050003,78.470001,75.856544,376200,-0.025715713564041565,0.040808356234611765,-0.013241253723020208
2016-08-29,78.5,79.059998,78.5,78.779999,76.156212,163400,-0.03499639867727655,0.028104855577779198,-0.01875617484790215
2016-08-30,78.779999,79.120003,78.589996,78.690002,76.069214,198900,-0.033486507870252424,0.02812698999417851,-0.017069330223528745
2016-08-31,78.540001,78.790001,77.959999,77.980003,75.38284300000001,279700,-0.03982679292375746,0.0167193938538297,-0.02569478560789573
2016-09-01,78.120003,78.300003,77.489998,77.970001,75.373192,209800,-0.03557800912613285,0.015474454660075132,-0.026174085972615835
2016-09-02,78.470001,79.18,78.099998,79.160004,76.523567,253000,-0.02626050068708885,0.01807673571171442,-0.019264852139767363
2016-09-06,79.440002,79.809998,78.91999799999999,79.459999,76.81356,237300,-0.03585060811129015,0.01121988766528137,-0.012409697227651506
2016-09-07,79.18,80.370003,79.18,80.290001,77.61590600000001,316100,-0.020404308106112268,0.015066554258665654,0.004006845265155157
2016-09-08,80.519997,80.550003,79.16999799999999,79.209999,76.571884,281300,-0.04960651990407783,0.005021375978808251,0.009552485375587949
2016-09-09,78.900002,78.900002,77.43,77.459999,74.88018000000001,327000,-0.033082176213819814,0.0066958184356273875,0.021571423694703995
2016-09-12,77.0,78.559998,77.0,78.510002,75.89520300000001,182000,-0.03229392029635392,0.012274918799369594,0.023567035390835045
2016-09-13,78.08000200000001,78.370003,77.139999,77.540001,74.957504,246800,-0.0298481671794395,0.014871174792940423,0.02907495905928048
2016-09-14,77.489998,77.760002,77.059998,77.370003,74.793159,150000,-0.03443971535254953,0.00230925900978729,0.02559450164853061
2016-09-15,77.300003,77.989998,77.260002,77.900002,75.305511,162600,-0.03639204031749621,-0.0017275474763005505,0.033407328933001246
2016-09-16,77.360001,78.010002,77.360001,77.599998,75.015495,310300,-0.027359077520419994,-0.012344335819033603,0.037919296315424234
2016-09-19,77.900002,78.800003,77.889999,78.610001,75.991867,233200,-0.022525666997972316,0.011922829244954691,0.05375675577341532
2016-09-20,79.099998,79.410004,78.699997,78.720001,76.098206,281000,-0.03580417969865923,0.010535085954449741,0.04883355078313034
2016-09-21,78.809998,78.809998,77.839996,78.41999799999999,75.80819699999999,413200,-0.04744135298461938,-0.0030350356820862956,0.04045646362523936
2016-09-22,79.059998,79.510002,78.360001,79.459999,76.81356,281200,-0.031696049391593206,0.001151365750894584,0.053212727579155406
2016-09-23,79.16999799999999,79.489998,78.610001,78.790001,76.165871,157100,-0.03471890921224574,4.4013855717395245e-05,0.05434611240535059
2016-09-26,78.690002,78.970001,78.029999,78.059998,75.46018199999999,289000,-0.036131183368514286,0.002592135348804092,0.05268212854595511
2016-09-27,77.360001,78.139999,77.360001,77.739998,75.150841,631400,-0.035424037728065905,-0.007859979916537974,0.03567059475770584
2016-09-28,78.360001,78.650002,77.610001,78.610001,75.991867,211900,-0.0350812611296476,-0.014963774428119692,0.03008528637342245
2016-09-29,78.279999,78.57,77.08000200000001,77.209999,74.638481,175600,-0.03940907411258365,-0.02466803822169883,0.020689856162556808
2016-09-30,77.360001,77.91999799999999,76.970001,77.410004,74.83183299999999,407300,-0.03866493967294726,-0.015341003097641526,0.010618273873471473
2016-10-03,77.07,77.440002,76.599998,77.360001,74.783508,301500,-0.028669439941857,-0.019416977803997426,0.012080017399912713
2016-10-04,77.239998,77.68,76.0,76.099998,73.56546,242700,-0.042770282923352276,-0.028156434737932834,-0.0077264261607137286
2016-10-05,76.459999,76.589996,75.93,76.110001,73.575127,189300,-0.0405836183348649,-0.03162902367223008,-0.019544548134445172
2016-10-06,76.099998,76.66999799999999,75.760002,76.639999,74.087486,153500,-0.027982454898026532,-0.014639535567661177,-0.0197772970445671
2016-10-07,76.660004,76.66999799999999,75.190002,75.639999,73.12078100000001,279500,-0.042427234873748,-0.030361215750830617,-0.028380784955187366
2016-10-10,76.040001,76.519997,75.68,75.949997,73.420464,116400,-0.03656931301058375,-0.02226146790313166,-0.02969860173475336
2016-10-11,75.620003,75.720001,74.550003,75.07,72.569778,152700,-0.029715825808582785,-0.01604180500371566,-0.022142924984073886
2016-10-12,75.559998,75.809998,75.110001,75.660004,73.140121,140900,-0.033256080985733405,-0.0119792582353897,-0.01537369549555212
2016-10-13,74.779999,76.199997,74.58000200000001,75.589996,73.072456,211200,-0.024173386383814943,0.0016531234941536965,-0.024150038378274452
2016-10-14,75.620003,76.32,75.57,76.029999,73.497803,176800,-0.02532912376098384,0.011411645386610658,-0.019352790413115883
2016-10-17,76.019997,76.470001,76.010002,76.199997,73.662132,80900,-0.02847903033657495,0.01022942944322125,-0.024614421860011504
2016-10-18,76.779999,77.0,75.980003,76.389999,73.84581,112900,-0.039568022280170645,0.01645358224224669,-0.016948578691748928
2016-10-19,76.279999,76.779999,76.040001,76.480003,73.932808,97900,-0.03287831069211844,0.015946660943732205,-0.020447759226648543
2016-10-20,76.120003,76.800003,75.389999,75.970001,73.439789,219300,-0.0352990074263726,0.00976209030282682,-0.02465575348061666
2016-10-21,76.230003,77.410004,75.870003,77.160004,74.59015699999999,184300,-0.02255486106952631,0.018706336817800207,-0.011538533470692336
2016-10-24,78.099998,78.099998,76.550003,77.0,74.435486,150800,-0.049373608300677496,0.00971347160514302,-0.016745825782918722
2016-10-25,77.0,77.139999,76.190002,77.0,74.435486,187000,-0.030816378081884643,0.007915995149541999,-0.009709247787273334
2016-10-26,76.82,77.190002,76.199997,76.269997,73.72979000000001,178100,-0.04220858148455342,-0.005143901545423546,-0.017413987586401447
2016-10-27,76.389999,76.389999,75.610001,76.279999,73.739471,174600,-0.030160520654160194,0.0016296791373013875,-0.02724172879940223
2016-10-28,75.110001,75.989998,72.58000200000001,73.019997,70.588036,464700,-0.05935974996461901,-0.03792256926197979,-0.06890541444307807
2016-10-31,72.93,73.889999,70.879997,71.440002,69.364655,644800,-0.04841671791843094,-0.049969373362798386,-0.07159009116132875
2016-11-01,71.809998,71.849998,70.32,70.620003,68.568466,345000,-0.038191694726905645,-0.07033087547265016,-0.08302077469423708
2016-11-02,70.58000200000001,71.540001,70.43,70.91999799999999,68.859749,267400,-0.019213179957219495,-0.05273056865402381,-0.06952040829265993
2016-11-03,70.849998,71.459999,70.639999,70.870003,68.811211,218400,-0.024355149380855146,-0.05280744381140501,-0.06510882694748243
2016-11-04,71.110001,71.900002,70.980003,71.410004,69.33551800000001,235500,-0.025937467879304954,-0.035765366833345524,-0.045319374503209
2016-11-07,72.57,74.349998,72.290001,74.33000200000001,72.170692,458400,-0.02013462786223119,-0.02079132251467186,-0.0330692768859544
2016-11-08,74.279999,76.07,74.050003,75.739998,73.539726,506700,-0.014531817302545491,0.03479992399290843,-0.00943745222847081
2016-11-09,74.910004,76.07,74.529999,75.110001,72.92804,313100,-0.04157645890187922,0.03279219629907537,-0.023456891764611854
2016-11-10,75.599998,75.599998,71.269997,71.43,69.354935,636100,-0.08621433346701668,-0.014657870356706404,-0.07826166724694605
2016-11-11,71.360001,72.129997,70.75,71.849998,69.762733,316900,-0.023441764341730398,-0.018182239009057355,-0.05954621256378445
2016-11-14,72.290001,73.540001,72.290001,73.510002,71.37451899999999,308000,-0.012079767089410609,0.0010461610348375672,-0.032433642240414784
2016-11-15,73.480003,73.800003,72.989998,73.379997,71.24829100000001,190100,-0.03640732263144564,-0.017435028216616466,-0.04811486715216429
2016-11-16,73.629997,73.720001,72.910004,73.57,71.43276999999999,205000,-0.030024756668761476,-0.031362152151587885,-0.03407021328671167
2016-11-17,73.58000200000001,74.260002,72.800003,73.58000200000001,71.44249,207500,-0.03337904196934982,-0.05091839499465234,-0.03809437931999149
2016-11-18,73.41999799999999,73.760002,72.870003,73.650002,71.51044499999999,229800,-0.02408664276268979,-0.028209342743060084,-0.03562442950395628
2016-11-21,73.699997,74.260002,73.339996,74.239998,72.083298,182500,-0.02754006022060107,0.024520540821648673,-0.04176186818990768
2016-11-22,74.599998,75.650002,73.959999,75.489998,73.29699699999999,452400,-0.01824741926151674,0.03179314331140848,-0.02940619274652967
2016-11-23,75.16999799999999,76.25,75.16999799999999,76.050003,73.84072900000001,193800,-0.02064415484779314,0.015419785903600491,-0.02842550172342495
2016-11-25,76.040001,76.660004,75.75,76.07,73.860153,123600,-0.03228998317220899,0.020999109632793278,-0.03734518696259226
2016-11-28,76.099998,77.279999,76.019997,76.470001,74.24852800000001,346700,-0.020781629935545887,0.02734255892389914,-0.02318123660505922
2016-11-29,76.550003,76.860001,74.800003,75.68,73.481476,327500,-0.042681316334871156,0.02015295814568141,-0.033888082118042284
2016-11-30,76.019997,76.050003,73.16999799999999,73.18,71.0541,322800,-0.06475730692864268,-0.014122284058156076,-0.059508803864939175
2016-12-01,73.199997,74.339996,72.459999,74.08000200000001,71.927963,467500,-0.0133902896036453,0.001077843078704177,-0.05939036192900371
2016-12-02,74.050003,74.550003,73.599998,74.349998,72.19010899999999,388100,-0.025816193402213194,-0.010215328549943337,-0.049334992901616026
2016-12-05,74.839996,75.129997,73.160004,73.379997,71.24829100000001,351000,-0.05102485160863868,-0.03573508967795913,-0.07207658655092608
2016-12-06,73.309998,73.860001,73.099998,73.800003,71.656097,356700,-0.025067868762302936,-0.029789034372149636,-0.06199031978931835
2016-12-07,71.839996,73.91999799999999,71.839996,73.480003,71.34539000000001,579300,-0.02066880296727991,-0.05772476851748376,-0.08253568425984437
2016-12-08,73.489998,74.589996,73.489998,74.199997,72.044464,408300,-0.022121101922892628,-0.038412022505188936,-0.03437753536125143
2016-12-09,74.610001,75.18,74.279999,74.75,72.578499,389200,-0.031952478707166776,-0.006013345903700618,-0.015552776405841406
2016-12-12,74.849998,75.150002,74.150002,74.610001,72.442551,276800,-0.03186397950968001,-0.02249540573765607,-0.011554892194009625
2016-12-13,74.900002,75.599998,74.309998,74.370003,72.20953399999999,270700,-0.04028627933170448,-0.03547665982180259,-0.032081084069394805
2016-12-14,74.57,74.970001,72.959999,73.050003,70.927887,343900,-0.0434088039067948,-0.02629813011176818,-0.04556727285128925
2016-12-15,73.32,73.720001,72.83000200000001,72.959999,70.840492,346100,-0.03806093940933941,-0.033709092254174955,-0.05993404521014778
2016-12-16,73.220001,73.400002,72.730003,72.93,70.811363,561000,-0.029586052587781353,-0.014945338213839143,-0.07668969995901165
2016-12-19,73.190002,74.029999,72.779999,73.800003,71.656097,280500,-0.02263578195127991,-0.012653486784000911,-0.08183094613816078
2016-12-20,73.650002,74.059998,73.400002,73.980003,71.83085600000001,269400,-0.026887827248955887,-0.015312329637107602,-0.06365730234202438
2016-12-21,73.870003,74.160004,73.339996,73.360001,71.228874,280600,-0.0340450523475635,-0.020531016025173265,-0.017428037862476486
2016-12-22,73.5,73.5,72.58000200000001,73.019997,70.89874300000001,291800,-0.03516178290409844,-0.013571626398558578,-0.02747047145889603
2016-12-23,72.860001,73.93,72.860001,73.610001,71.47161899999999,161500,-0.020804361916191283,0.0029832772550406617,-0.04363015663108616
2016-12-27,73.809998,74.57,73.449997,74.16999799999999,72.015343,201800,-0.02578362017561453,0.013424822345270648,-0.029074194648260665
2016-12-28,74.050003,74.690002,73.57,73.720001,71.578423,191000,-0.024960393649354984,0.014390062515557744,-0.030937485291866018
2016-12-29,73.639999,74.120003,73.32,73.690002,71.54929399999999,139400,-0.02869501243568351,0.004390785178751244,-0.026521765964757194
2016-12-30,73.730003,74.019997,73.25,73.449997,71.316261,240200,-0.027593326171965415,0.006971371696593565,-0.02847658790237073
2017-01-03,74.260002,74.260002,72.349998,73.019997,70.89874300000001,336300,-0.049096200209209684,-0.0013955793522377746,-0.043344158036362934
2017-01-04,72.91999799999999,74.720001,72.91999799999999,74.230003,72.073593,418800,-0.015712803051956215,0.012114329019912162,-0.047149285750392345
2017-01-05,73.720001,74.410004,73.230003,73.470001,71.33567,356400,-0.0332391515219328,-0.004202739724955329,-0.06325268225964198
2017-01-06,73.529999,73.970001,73.07,73.5,71.364807,282800,-0.03245675774746992,-0.012638073539942063,-0.062711377820996
2017-01-09,73.5,74.410004,73.08000200000001,73.68,71.539574,374100,-0.024969597726234305,-0.008943358693498382,-0.06722340290926354
2017-01-10,73.33000200000001,73.589996,72.800003,72.82,70.704559,161500,-0.03609840108647511,-0.020570395848118928,-0.06724511995855753
2017-01-11,73.029999,73.360001,72.779999,73.040001,70.91816700000001,193100,-0.032301454487339676,-0.02176502000255187,-0.03611932384676653
2017-01-12,73.150002,73.760002,72.360001,73.33000200000001,71.199745,184300,-0.026714676217501676,-0.001332876982917952,-0.04575487809798506
2017-01-13,73.309998,73.82,73.029999,73.5,71.364807,188900,-0.02772775271147143,-0.011594451013349882,-0.04852840821379889
2017-01-17,72.879997,73.83000200000001,72.860001,73.339996,71.209457,270200,-0.022637557853965262,-0.0012814810244901054,-0.028799073606172954
2017-01-18,73.41999799999999,73.800003,73.019997,73.480003,71.34539000000001,261000,-0.029874799231614624,0.0019658397680188955,-0.030956503680827474
2017-01-19,73.639999,73.690002,72.459999,72.730003,70.617172,374700,-0.03829475483684153,-0.01067854446885974,-0.020177178860639522
2017-01-20,72.370003,72.510002,71.550003,71.639999,69.558838,347300,-0.04021349650291306,-0.017398764385408327,-0.04623186183877692
2017-01-23,71.879997,72.529999,71.440002,72.449997,70.34530600000001,384600,-0.020443603811246547,-0.003652878927237424,-0.03375885687030333
2017-01-24,72.790001,73.849998,72.790001,73.540001,71.403633,266000,-0.02459059771461458,-0.0013730412967500882,-0.02463251365707908
2017-01-25,73.360001,73.940002,73.139999,73.43,71.296844,267000,-0.032664441918817566,-0.011331261767566936,-0.024383010159563234
2017-01-26,73.389999,73.68,72.459999,73.32,71.190033,275500,-0.029586180125027006,-0.012887545588356808,-0.01538848908276158
2017-01-27,73.400002,73.489998,72.910004,73.440002,71.306534,320400,-0.02705077724076599,-0.010530461916193445,-0.0077778733428459645
2017-01-30,73.07,73.440002,72.099998,72.739998,70.935974,342000,-0.027402305017249162,-0.003069508683213762,-0.00830134933001414
2017-01-31,72.870003,73.309998,72.290001,72.970001,71.160263,669400,-0.025873072419861032,0.01943860045511059,-0.014139774599665422
2017-02-01,73.290001,74.050003,73.050003,73.940002,72.10620899999999,446900,-0.013637871847111072,0.01840905634370138,-3.7470889494350956e-05
2017-02-02,73.800003,73.800003,73.010002,73.33000200000001,71.511337,325700,-0.03332839131143395,0.0011651967653154571,-0.002936300866590358
2017-02-03,73.769997,74.129997,73.5,73.779999,71.95018,278200,-0.02885081269694023,0.00953537901337942,-0.0012760047476252367
2017-02-06,73.529999,74.019997,73.120003,73.349998,71.53083000000001,254500,-0.026814968434360154,0.006571172317535456,-0.011800594020266786
2017-02-07,73.339996,73.470001,72.650002,72.730003,70.926224,360800,-0.03224988835830889,-0.004645919612535465,-0.025848615300652078
2017-02-08,72.620003,73.699997,72.440002,73.550003,71.725891,397300,-0.01462231828455618,0.005055139309794399,-0.017636272535777486
2017-02-09,73.370003,73.940002,73.160004,73.57,71.745384,438000,-0.02724343876623614,-0.004456355129072165,-0.02298691490748883
2017-02-10,74.209999,76.199997,74.209999,74.790001,72.93512700000001,1160100,-0.018983568029592668,-0.0044764846977836115,-0.011485327283871527
2017-02-13,75.220001,75.440002,74.360001,74.43,72.584061,440000,-0.038480448671644574,-0.005679333243297613,-0.007220054757650196
2017-02-14,74.400002,74.400002,73.720001,73.83000200000001,71.99894,432000,-0.037719117819396075,-0.016652057710621726,-0.030042391478159125
2017-02-15,73.83000200000001,73.91999799999999,72.860001,73.199997,71.38456,522800,-0.03951942130220232,-0.026473951552316244,-0.0340718058476277
2017-02-16,73.400002,74.230003,73.400002,74.199997,72.359764,267000,-0.013243121230243737,-0.003325549892641,-0.016536091653351015
2017-02-17,74.41999799999999,74.550003,73.470001,73.900002,72.067207,318600,-0.03559793599096572,-0.019572447668980253,-0.028265361511259357
2017-02-21,73.910004,74.660004,73.860001,74.589996,72.740082,188600,-0.02039178735293312,-0.010844515388170883,-0.013261034447540787
2017-02-22,74.339996,74.809998,73.940002,74.260002,72.418274,204500,-0.026914397168407156,-0.02708277469876652,-0.016803081980086176
2017-02-23,74.470001,74.559998,74.040001,74.120003,72.281754,250600,-0.02826484392574624,-0.019331456706005667,-0.02521863448073791
2017-02-24,73.779999,74.489998,73.639999,74.360001,72.515793,232400,-0.022199655409771424,-0.005497783632210762,-0.023945724097020005
2017-02-27,74.099998,75.019997,74.099998,74.480003,72.632828,251800,-0.021907713379056837,0.008647060406120843,-0.024143264417016752
2017-02-28,74.269997,74.650002,73.949997,74.510002,72.662071,390200,-0.020855680408573107,-0.0028019916579049564,-0.021303923079274867
2017-03-01,75.209999,76.16999799999999,74.91999799999999,76.059998,74.173622,371000,-0.020504509687995665,0.009934290734776141,-0.007652526307623475
2017-03-02,75.690002,76.07,75.459999,75.809998,73.929825,327700,-0.01815775640150985,0.009255549307403577,0.013393279245271117
2017-03-03,75.529999,76.239998,75.529999,76.040001,74.154129,298400,-0.01930783141399761,0.015132327689453717,0.001982124636604965
2017-03-06,75.470001,76.089996,75.470001,75.650002,73.773811,302100,-0.022765149059301493,0.015578840858099241,-0.008266752325888582
2017-03-07,75.540001,75.940002,75.18,75.470001,73.598259,452700,-0.025049175706768345,0.014373642843878542,0.0017591805144254735
2017-03-08,75.279999,76.059998,75.279999,75.940002,74.056602,435600,-0.013498507112433167,0.02227363524008208,0.011017916411422135
2017-03-09,75.879997,76.480003,75.589996,75.849998,73.96884200000001,341200,-0.026092920670627073,0.01730407827475311,0.006530617111671688
2017-03-10,76.120003,77.0,75.800003,76.790001,74.885529,435400,-0.016384165982197274,0.019349607063910312,0.0147665894395006
2017-03-13,76.800003,77.0,76.160004,76.75,74.84650400000001,221900,-0.026570292000893225,0.015876915816615877,0.009831594606776406
2017-03-14,75.629997,77.019997,75.349998,76.529999,74.631973,265900,-0.011974266034109782,0.013865601093196567,-0.002561330613899848
2017-03-15,76.91999799999999,77.690002,76.83000200000001,77.239998,75.324371,225600,-0.02723685558665423,0.016619773229110457,0.007187824137906418
2017-03-16,77.300003,77.529999,76.690002,76.980003,75.07081600000001,186200,-0.026607484183764463,0.014340762597941925,0.0065645640989879794
2017-03-17,76.900002,77.239998,76.589996,77.08000200000001,75.168327,405100,-0.020482785753878296,0.008458868790579999,0.012905612884466677
2017-03-20,77.16999799999999,77.870003,76.75,77.839996,75.909492,247300,-0.014461311712590685,0.022267879859500184,0.03344441658370734
2017-03-21,77.720001,77.83000200000001,76.629997,76.769997,74.866028,321300,-0.02246506597813891,0.011858584209941903,0.021570034339648103
2017-03-22,76.660004,77.08000200000001,76.510002,76.849998,74.94403100000001,130100,-0.02496188619606965,0.011899670530242545,0.026187620266091116
2017-03-23,76.83000200000001,77.739998,76.32,77.160004,75.246353,136400,-0.02082351067191901,0.016472004262025663,0.018387158345909427
2017-03-24,77.190002,77.650002,76.33000200000001,76.620003,74.719749,154300,-0.02978183448163918,0.009398506750428304,0.022265664131632334
2017-03-27,75.809998,76.760002,75.809998,76.620003,74.719749,256200,-0.019829706064507846,0.012162432390489641,0.03537905420009935
2017-03-28,76.410004,77.279999,76.33000200000001,77.07,75.158592,237700,-0.024507522600881515,0.008179873368890256,0.04755943780567318
2017-03-29,77.110001,77.110001,76.489998,77.040001,75.129333,129300,-0.02796772875264697,-0.005117928774627245,0.03165203770172109
2017-03-30,76.989998,77.379997,76.559998,76.860001,74.953804,141800,-0.029658044902640235,-0.009031912601583869,0.03211056940704449
2017-03-31,76.900002,77.279999,76.41999799999999,76.989998,75.080566,197200,-0.023055699807734698,-0.004237801563108157,0.03279433409115384
2017-04-03,76.940002,77.459999,76.209999,76.449997,74.553955,424900,-0.03002015147791859,-0.014719672810303841,0.030750260234372107
2017-04-04,76.5,76.900002,75.949997,76.739998,74.83676899999999,318700,-0.024271972829206234,-0.005314151675103851,0.03628296916253415
2017-04-05,77.040001,77.040001,76.019997,76.08000200000001,74.193138,372800,-0.03187281591090141,-0.011912384437048118,0.02896445339526199
2017-04-06,75.940002,76.540001,75.489998,76.529999,74.631973,293700,-0.01894525117777679,-0.006573390596575912,0.03233898680297642
2017-04-07,76.489998,76.790001,76.019997,76.160004,74.271149,214800,-0.02899173591910298,-0.009118244908322914,0.025335784451303134
2017-04-10,75.940002,76.949997,75.91999799999999,76.889999,74.983047,242100,-0.012681533154817792,0.005003683123376845,0.02717996179564519
2017-04-11,76.599998,76.970001,76.41999799999999,76.91999799999999,75.012314,263700,-0.020885332340871088,0.002881463032498033,0.0264202478162483
2017-04-12,76.889999,76.91999799999999,76.040001,76.230003,74.339424,236800,-0.03066015924212273,0.003032813582662719,0.018650746127581108
2017-04-13,76.050003,76.589996,75.760002,75.800003,73.92009,164800,-0.022827197589085912,0.0009871913648451525,0.021691319669280062
2017-04-17,76.029999,77.300003,75.879997,77.269997,75.353615,220500,-0.015937903590454994,0.01719610609096378,0.03178691664234723
2017-04-18,77.040001,77.68,76.940002,77.57,75.646194,196800,-0.018112461820451564,0.020009246000815217,0.03007459756370956
2017-04-19,77.870003,77.93,77.510002,77.550003,75.626678,264800,-0.025551788789139884,0.025488010729313615,0.03351971690586364
2017-04-20,76.949997,78.32,76.949997,77.82,75.889984,354300,-0.019468681254865672,0.012582742695455451,0.02041309742719033
2017-04-21,78.18,78.639999,77.099998,77.989998,76.055771,185200,-0.02497434731815673,0.01597947143843559,0.02652280343806801
2017-04-24,78.970001,78.970001,77.720001,78.300003,76.358086,250700,-0.03524433165353802,0.014408600704497232,0.019193745738881773
2017-04-25,78.349998,79.16999799999999,77.620003,78.730003,76.777412,290500,-0.02325236807437303,0.012631687043654694,0.0177032334838243
2017-04-26,78.91999799999999,79.5,78.690002,79.339996,77.37226899999999,343000,-0.019165563056438906,0.01020467154499638,0.027650825589401684
2017-04-27,79.199997,79.599998,78.43,78.790001,76.835922,237600,-0.02991477870866799,-0.004087096705774229,0.017528632067355332
2017-04-28,80.0,80.529999,78.760002,80.300003,78.308472,637700,-0.01740255375506461,0.015351612859467068,0.026603449905830523
2017-05-01,80.08000200000001,80.599998,79.209999,79.730003,78.063705,974600,-0.02542979161481629,0.014543491057405156,0.023098004274653583
2017-05-02,79.349998,80.68,78.889999,80.199997,78.52388,450100,-0.01051577220204436,0.014010829745595643,0.028633962653421108
2017-05-03,79.889999,80.660004,79.5,80.449997,78.76863900000001,384500,-0.014818467015818904,0.025209855845237605,0.027931597322093715
2017-05-04,80.5,81.720001,80.5,81.389999,79.689011,488800,-0.01001249271210991,0.03684034870083064,0.045145075434226634
2017-05-05,81.400002,82.16999799999999,81.32,81.910004,80.198135,413400,-0.01776335854254807,0.030924779207286868,0.04641317240619891
2017-05-08,82.08000200000001,82.610001,81.720001,82.510002,80.785606,374100,-0.015662209122405457,0.045694816523684345,0.05504357522214942
2017-05-09,82.610001,82.940002,82.110001,82.480003,80.756241,302600,-0.020753164379435418,0.02545852111296565,0.05717989979342342
2017-05-10,82.25,83.040001,82.25,82.870003,81.138077,308100,-0.014795183596814532,0.03390703315518895,0.0660369500314264
2017-05-11,82.489998,82.91999799999999,81.82,82.529999,80.805183,311500,-0.020468839009372353,0.02727172202392758,0.060143486240456845
2017-05-12,82.449997,82.82,82.239998,82.43,80.707268,227600,-0.020719461549899343,0.02315445857332943,0.06580572870572698
2017-05-15,82.43,82.980003,82.190002,82.629997,80.903099,211900,-0.022175039320549317,0.009777985058068595,0.06023721216739908
2017-05-16,82.58000200000001,82.800003,82.230003,82.790001,81.059753,210700,-0.016966006935470013,0.010111357770131058,0.06843691461337809
2017-05-17,82.790001,82.790001,81.849998,82.279999,80.560402,266100,-0.01636322360462028,0.015016390037554395,0.07663335585627973
2017-05-18,82.25,82.400002,81.120003,82.139999,80.423325,325700,-0.027132487766142077,0.008971143210963817,0.07526928791271015
2017-05-19,82.190002,82.510002,81.82,82.360001,80.638733,331900,-0.02341378153994267,0.001314138734293202,0.06234740564234276
2017-05-22,82.25,82.980003,82.050003,82.839996,81.108704,238500,-0.01682177597635892,0.003924558893133145,0.06118658210109196
2017-05-23,83.0,83.660004,82.970001,83.190002,81.45139300000001,204100,-0.019409665971369172,0.006037472645640918,0.06881038776870518
2017-05-24,83.190002,83.519997,82.800003,83.389999,81.64720200000001,187400,-0.019959782158177397,0.008294197503898815,0.06754421830645274
2017-05-25,83.620003,84.279999,83.260002,84.150002,82.391327,203200,-0.017095011531197635,0.010313134673071822,0.06155394319548613
2017-05-26,84.150002,84.629997,84.059998,84.370003,82.606735,158300,-0.019056305472835433,0.0004475383529687349,0.057071648208433245
2017-05-30,84.129997,84.639999,83.800003,84.540001,82.773178,224400,-0.016773144455297206,0.009048777255178386,0.05883005443857492
2017-05-31,85.18,85.18,84.41999799999999,85.010002,83.23335300000001,285400,-0.021531822383433763,0.019122781488223772,0.06888744443511108
2017-06-01,85.25,86.309998,85.010002,86.260002,84.457237,272600,-0.015290392128665786,0.02551305259555736,0.07072016325821373
2017-06-02,86.400002,86.730003,85.730003,86.33000200000001,84.525772,170700,-0.025130184433865388,0.020243352240232326,0.07464513930444028
2017-06-05,86.099998,87.089996,85.779999,85.849998,84.055786,237600,-0.023318799542605184,0.01597089534425855,0.0708834266070566
2017-06-06,85.83000200000001,85.83000200000001,85.059998,85.480003,83.693535,342600,-0.024141379188178824,0.009794326918082241,0.06114359856857199
2017-06-07,85.110001,85.91999799999999,85.059998,85.690002,83.899139,366600,-0.014785446855304585,0.008380378305114178,0.06953912321932165
2017-06-08,85.779999,85.989998,84.860001,85.25,83.468338,185000,-0.027121297105471953,-0.0002529750231108352,0.043225466555997016
2017-06-09,85.300003,85.800003,85.18,85.650002,83.85996999999999,189800,-0.01512810951388932,-0.0007457793812495339,0.05359817399645639
2017-06-12,85.239998,85.980003,84.870003,85.440002,83.65436600000001,239000,-0.020223020091227895,-0.009275895829190084,0.047433437683428004
2017-06-13,85.860001,86.18,85.480003,86.18,84.37889100000001,178500,-0.01994474320011541,-0.0022638830706744884,0.047171400388528184
2017-06-14,86.040001,86.769997,86.040001,86.25,84.44743299999999,212300,-0.016294509907520016,0.0039018040379428243,0.037944881944168785
2017-06-15,85.519997,86.290001,84.900002,86.230003,84.427864,200000,-0.01627903908672934,0.007448211283852757,0.03766703064513788
2017-06-16,86.0,86.360001,85.449997,85.949997,84.15369399999999,450200,-0.022487741531223016,0.0030253526650749762,0.026869659360712284
2017-06-19,86.32,86.870003,85.93,86.75,84.936981,166600,-0.020608401095848272,0.009392679055125086,0.027159624498156454
2017-06-20,86.949997,87.18,86.650002,86.889999,85.07405899999999,240200,-0.016233803360419685,0.012213074296856696,0.03190421513812414
2017-06-21,86.91999799999999,87.940002,86.550003,87.0,85.181763,185800,-0.018682816575452676,0.015536612441851005,0.03569832810135143
2017-06-22,86.959999,87.360001,86.410004,86.82,85.005524,166200,-0.021541528139579214,0.009799094087713733,0.03381603590291249
2017-06-23,86.83000200000001,87.68,86.33000200000001,86.800003,84.985947,474300,-0.02296442017758782,0.0062007567806494635,0.034367653666749653
2017-06-26,86.970001,87.589996,86.610001,87.139999,85.318825,307000,-0.01742717024244289,0.007783860461757719,0.03533953333676454
2017-06-27,87.0,87.510002,86.339996,86.370003,84.564926,187900,-0.02140283563446843,0.010550190151728422,0.02240345947488631
2017-06-28,86.959999,87.370003,86.269997,86.93,85.11322,169600,-0.026390508587681438,0.007291283886412536,0.025479765173605173
2017-06-29,86.870003,87.129997,85.779999,86.489998,84.682419,196100,-0.01617539003747659,0.002522404122082378,0.03311248052591331
2017-06-30,86.93,87.33000200000001,86.769997,86.860001,85.044685,238500,-0.019540010911435424,0.00341114212167426,0.03518491132989254
2017-07-03,87.209999,87.66999799999999,86.889999,87.08000200000001,85.260086,118800,-0.021633276538879365,0.00524780299353278,0.03302636625080435
2017-07-05,86.949997,87.5,86.440002,87.290001,85.465698,243900,-0.01794189336840546,0.007994289354088302,0.03406774551693914
2017-07-06,86.83000200000001,87.739998,86.690002,87.309998,85.485283,393900,-0.009942988246850248,0.014042949953140038,0.039069348616832755
2017-07-07,87.690002,88.550003,87.139999,88.089996,86.24897800000001,245200,-0.021389133341460642,0.017324152444643026,0.0392800735665606
2017-07-10,87.949997,89.07,87.480003,88.300003,86.45459,246000,-0.01835274234132367,0.021084640365782725,0.03751562828420951
2017-07-11,88.190002,88.58000200000001,87.75,88.16999799999999,86.327301,180700,-0.020597604061292962,0.016831361902072572,0.030821060939762113
2017-07-12,88.860001,89.32,88.43,88.980003,87.120384,142400,-0.022845625346424647,0.015960544782177344,0.025632403516512525
2017-07-13,89.07,89.269997,87.790001,88.629997,86.777687,278600,-0.027233971845898708,0.009924927782073212,0.022707941792645236
2017-07-14,89.120003,89.970001,88.91999799999999,89.43,87.56096600000001,305900,-0.02176799818949604,0.013291631460102593,0.03138848163278318
2017-07-17,89.5,89.970001,89.230003,89.790001,87.913452,299300,-0.01773936931794573,0.007719953919640865,0.03699497561839138
2017-07-18,89.400002,90.410004,89.08000200000001,89.739998,87.864494,278500,-0.019249146409833884,0.004053970459245271,0.034953665720691696
2017-07-19,90.32,90.790001,89.68,90.089996,88.207169,395300,-0.02771306048989075,0.00113440389064845,0.0389030071979688
2017-07-20,90.269997,90.480003,89.529999,89.699997,87.825325,323100,-0.026602507903811023,-0.0023598475505224314,0.029206992770489215
2017-07-21,89.989998,89.989998,89.0,89.510002,87.63930500000001,271500,-0.02854999947156589,-0.005978159679386863,0.028930139666315746
2017-07-24,88.940002,89.589996,88.589996,89.459999,87.90460999999999,390200,-0.010847698921905291,0.003922995428013998,0.028894820291333723
2017-07-25,89.959999,89.959999,88.519997,88.690002,87.14801,596900,-0.03145445453730833,-0.011963386186518044,0.015523291408322315
2017-07-26,88.779999,88.970001,87.989998,88.059998,86.528954,317800,-0.024819058873838173,-0.023445301077194003,0.006101463257344619
2017-07-27,88.5,88.5,87.260002,88.0,86.470001,328900,-0.020244205947726357,-0.021998959172008448,0.009929353883608272
2017-07-28,83.400002,83.699997,80.83000200000001,82.309998,80.878914,915000,-0.03190135827681395,-0.08603553655324525,-0.05652520841040154
2017-07-31,82.239998,83.5,80.690002,80.93,79.522911,962700,-0.031316131090564525,-0.09803043305513715,-0.08103651458150463
2017-08-01,81.0,82.790001,80.980003,82.510002,81.075447,463400,0.0012338301567726973,-0.07938918225482894,-0.0659956550303642
2017-08-02,82.540001,82.75,81.230003,82.25,80.819969,348600,-0.019925501840374338,-0.08712476465284347,-0.06802903844922348
2017-08-03,82.300003,82.41999799999999,81.82,82.25,80.819969,322100,-0.016582812098882016,-0.07337550351303257,-0.06405296888535972
2017-08-04,82.5,82.779999,82.16999799999999,82.360001,80.928055,168100,-0.019217635075345463,-0.06651487576352277,-0.06819727296793587
2017-08-07,82.550003,82.949997,82.389999,82.739998,81.301445,171600,-0.016761183820836578,-0.0638491002653927,-0.06446993653351285
2017-08-08,82.629997,82.93,82.400002,82.739998,81.301445,163300,-0.014823969369471612,0.004070633495516063,-0.05974585880129801
2017-08-09,82.5,82.800003,82.239998,82.480003,81.045982,188900,-0.02129216182473126,0.017466758288903428,-0.06609216041468358
2017-08-10,82.230003,82.739998,81.480003,81.510002,80.092834,265100,-0.01525208972473635,0.0033278152123177307,-0.06607898193972073
2017-08-11,82.349998,82.349998,81.410004,82.139999,80.711876,214100,-0.020207416065326278,0.013401014767506325,-0.05987582667524993
2017-08-14,82.629997,83.0,82.510002,82.910004,81.468491,147300,-0.018578546386713413,0.010551926813173296,-0.061495331426274724
2017-08-15,82.739998,83.0,82.550003,82.75,81.311279,190900,-0.015776562564683516,0.00967011476788926,-0.07257010815318665
2017-08-16,82.860001,83.83000200000001,82.699997,83.550003,82.09736600000001,248800,-0.009035941008995962,0.014914817024541449,-0.06687927195361443
2017-08-17,83.269997,83.519997,82.120003,82.129997,80.702057,221700,-0.01785981789677571,0.010912938408879747,-0.06991756075820099
2017-08-18,82.010002,82.300003,81.639999,82.150002,80.72171,191000,-0.014972430325089547,0.01577693064329999,-0.06714659167345616
2017-08-21,82.059998,82.480003,81.339996,81.489998,80.073174,126300,-0.025692380889973165,0.0037983536787384864,-0.07824117304315958
2017-08-22,81.980003,82.290001,81.730003,82.120003,80.69223000000001,190100,-0.02351177985213937,-0.004816528177560286,-0.07461728263488343
2017-08-23,81.75,82.529999,81.489998,81.610001,80.19109300000001,180500,-0.018909790554910266,-0.006923750961655095,-0.08171071384803241
2017-08-24,81.730003,82.059998,80.949997,81.08000200000001,79.670311,180000,-0.021865405072794886,-0.009929916794632732,-0.09021997886746025
2017-08-25,81.5,82.730003,81.5,82.389999,80.957535,330100,-0.0059949559887284565,-0.0037757350337424,-0.0747089774466021
2017-08-28,82.650002,82.779999,81.489998,81.860001,80.436745,241600,-0.025872134831910643,-0.009131820659263212,-0.08018378530811265
2017-08-29,81.900002,82.099998,81.57,82.0,80.574318,226300,-0.022206482288353868,-0.010345972659098202,-0.07513271678203193
2017-08-30,82.139999,83.18,81.900002,82.970001,81.527451,207600,-0.012187950563955496,0.006037961812403125,-0.0662250515513696
2017-08-31,83.18,83.660004,82.720001,83.610001,82.156326,266700,-0.016031025359566797,0.010207648721132223,-0.0683326293417652
2017-09-01,83.800003,84.0,83.41999799999999,83.879997,82.421616,183000,-0.017445799488413627,0.01422122508830892,-0.05552610257320545
2017-09-05,83.720001,84.16999799999999,83.18,83.25,81.802589,191900,-0.018096159301322245,0.018700669702226946,-0.0480740080880393
2017-09-06,83.33000200000001,83.33000200000001,82.489998,82.849998,81.409531,240900,-0.02401008260431503,-0.003595990830691065,-0.056306009105284716
2017-09-07,82.959999,83.739998,82.32,83.610001,82.156326,241000,-0.008534678412881469,0.012654565544783836,0.018506316789916433
2017-09-08,83.5,84.18,82.769997,83.82,82.36267099999999,207600,-0.013381207604957979,0.015786593679969485,0.0386843099530747
2017-09-11,84.32,85.16999799999999,84.0,85.120003,83.640068,209800,-0.013573380447185812,0.013240703584527225,0.026404834287986567
2017-09-12,84.93,85.440002,84.709999,85.199997,83.718674,214500,-0.016185560635852525,0.008842384408393578,0.02763451971947184
2017-09-13,84.610001,85.040001,84.370003,84.5,83.030846,229000,-0.02063516597904158,-0.0014076389480290885,0.016441761991798032
2017-09-14,84.510002,85.099998,84.160004,84.870003,83.394417,166300,-0.013713387156089496,0.004022252924197112,0.022463120599680586
2017-09-15,84.739998,84.949997,84.480003,84.709999,83.23719799999999,399800,-0.019718903008326016,0.008230131266495633,0.015773222426603617
2017-09-18,84.970001,85.66999799999999,84.739998,85.440002,83.95450600000001,198600,-0.012566557380409016,0.0060460425864627965,0.020481725880863166
2017-09-19,85.43,85.760002,84.949997,85.559998,84.072418,260300,-0.016162354317146743,0.002341527056222148,0.023559078720393423
2017-09-20,85.660004,86.239998,85.639999,86.120003,84.62267299999999,167200,-0.012742062855714664,0.003621666639211263,0.0266986857148801
2017-09-21,86.08000200000001,86.760002,85.870003,86.150002,84.652153,199600,-0.014106716180202206,0.00943947288332847,0.023672977835293985
2017-09-22,86.199997,86.269997,85.449997,85.720001,84.229637,189400,-0.025107491591636943,0.012794905193827866,0.018684740372452602
2017-09-25,85.75,86.889999,85.349998,86.760002,85.25155600000001,222800,-0.004736861942107318,0.021608442344507317,0.034401448176298643
2017-09-26,87.099998,87.32,86.449997,86.75,85.241722,199700,-0.019885158720025053,0.025153421598051118,0.026011827000113286
2017-09-27,86.800003,86.93,86.209999,86.540001,85.03537800000001,272900,-0.022032183481522694,0.01152711652811611,0.02109590400009953
2017-09-28,86.360001,87.510002,86.089996,87.08000200000001,85.56599399999999,228200,-0.011889592791397341,0.016249871875102073,0.024032019952195505
2017-09-29,87.019997,87.129997,86.300003,86.309998,84.809372,220700,-0.029470029520114238,-0.002219813010710503,0.02068051902543111
2017-10-02,86.809998,87.970001,86.540001,87.879997,86.35208100000001,264000,-0.008425398654395622,0.008541641361946795,0.037031147374801066
2017-10-03,87.900002,88.440002,87.900002,88.43,86.892517,202100,-0.013202167130045517,0.018275428030356977,0.043883919364464674
2017-10-04,88.260002,88.849998,87.91999799999999,88.139999,86.607559,231600,-0.020580001813183202,-0.0005393839154406166,0.04379198105549076
2017-10-05,88.510002,88.730003,87.620003,88.139999,86.607559,178900,-0.026130637149140767,-0.005982764297856491,0.023804797735999195
2017-10-06,88.040001,88.629997,87.900002,88.58000200000001,87.039909,162800,-0.012166230376581488,0.00657153573295588,0.03679926039231862
2017-10-09,88.68,88.790001,88.33000200000001,88.459999,86.92199699999999,139400,-0.017409533856430848,0.002005327016521896,0.0363833196278156
2017-10-10,88.599998,88.870003,88.220001,88.470001,86.931816,186700,-0.019262580242827454,0.012378709048457281,0.027021266261485266
2017-10-11,88.480003,88.800003,88.190002,88.360001,86.823738,162500,-0.02070614419075323,-0.004827526742997357,0.021995971910671486
2017-10-12,88.5,88.709999,88.220001,88.489998,86.951477,168000,-0.016888208691784534,-0.005751688950934586,0.02391100532522117
2017-10-13,88.690002,89.370003,88.690002,88.839996,87.295387,187100,-0.014874766198315292,0.0018487459532314787,0.02694005730649529
2017-10-16,88.91999799999999,88.940002,87.970001,88.940002,87.393661,236000,-0.01812391428534532,0.006855558044302157,0.034256346610992416
2017-10-17,89.300003,89.300003,88.709999,88.980003,87.43296099999999,175200,-0.02198530304993529,0.0005789432036760189,0.024723638051210806
2017-10-18,88.730003,89.370003,88.32,88.599998,87.059563,207400,-0.018377126947048517,-0.004893396358494506,0.01570332958935161
2017-10-19,88.510002,88.83000200000001,88.349998,88.639999,87.098869,151600,-0.019477090701973232,-0.0025631953918185957,0.011217367285139446
2017-10-20,89.230003,89.309998,88.699997,89.199997,87.649124,134800,-0.020850736992730212,0.0016766332318676191,0.014830220734145527
2017-10-23,89.160004,89.68,88.91999799999999,89.029999,87.482079,418900,-0.01390429984841468,0.0005910319109156958,0.025909676184165953
2017-10-24,89.059998,89.629997,88.83000200000001,89.120003,87.570534,189100,-0.01704865270366529,-0.0030846300109050873,0.019833174371393092
2017-10-25,89.07,89.470001,87.690002,88.489998,86.951477,201800,-0.02041476527909669,-0.00488092628874881,0.021145289055747973
2017-10-26,88.809998,89.239998,88.599998,88.940002,87.393661,234700,-0.016201401862824483,-0.000855777252806611,0.017821818211941398
2017-10-27,89.400002,89.400002,85.889999,87.93,86.40121500000001,531500,-0.038315969328995614,-0.015295517547584403,-0.0019337150144549398
2017-10-30,87.459999,87.589996,86.25,86.459999,84.956764,260400,-0.027128631578158036,-0.029080648173689383,-0.0214849475277612
2017-10-31,86.25,87.300003,86.120003,87.07,85.874001,474700,-0.0040855200347760245,-0.02047993446604046,-0.015089186615223404
2017-11-01,87.83000200000001,88.120003,87.209999,87.410004,86.20931999999999,279300,-0.017133409329829874,-0.02024634258825042,-0.007131571597912334
2017-11-02,87.089996,87.370003,86.32,86.599998,85.410446,259200,-0.019624845073217045,-0.029140180719743114,-0.03091544869285734
2017-11-03,86.599998,87.18,86.599998,86.940002,85.74578100000001,216000,-0.012199338781551106,-0.02589360993141998,-0.029901742473723125
2017-11-06,87.019997,87.08000200000001,85.68,85.849998,84.670746,271600,-0.0287812602574542,-0.04358316396987316,-0.037288462286047874
2017-11-07,85.849998,86.110001,85.389999,85.720001,84.542542,326900,-0.014779351744390823,-0.02544771506356458,-0.04363130195312159
2017-11-08,85.68,86.599998,85.639999,85.730003,84.552406,271400,-0.015435749567318524,-0.013111968054872136,-0.03237710257192283
2017-11-09,85.199997,85.41999799999999,84.32,84.760002,83.595726,146600,-0.019248958809889416,-0.030516759617944977,-0.054147587595115176
2017-11-10,84.349998,85.110001,84.220001,84.910004,83.743668,195800,-0.008035579468632648,-0.03015687662036104,-0.05556387624863035
2017-11-13,84.620003,85.760002,84.620003,85.589996,84.414322,156100,-0.005653702457228071,-0.013663681509416215,-0.04403974628683294
2017-11-14,85.379997,85.889999,85.160004,85.610001,84.43405200000001,157400,-0.011575504690183536,-0.011943882652256654,-0.03586286082812329
2017-11-15,85.540001,85.980003,85.08000200000001,85.480003,84.30584,182500,-0.012651491455549113,0.0059646444350551775,-0.03789535358394858
2017-11-16,85.739998,86.5,85.599998,86.110001,84.927185,264400,-0.014445132185858967,0.0064712689977382,-0.03916535997190529
2017-11-17,86.029999,86.239998,85.480003,85.650002,84.47350300000001,171000,-0.01667348871820007,0.0050703005911678645,-0.03968551102921225
2017-11-20,85.610001,86.43,85.32,85.470001,84.295975,220200,-0.01649476266375771,0.009301792779734974,-0.040018268072382845
2017-11-21,85.91999799999999,86.82,85.32,86.540001,85.35128,506700,-0.010442140029910618,0.012557068321406462,-0.0372551189762893
2017-11-22,86.610001,86.620003,85.790001,85.849998,84.670746,140300,-0.021402211232625312,-0.0016910433333103825,-0.0475795355733748
2017-11-24,85.489998,86.339996,85.099998,86.25,85.065262,108200,-0.005749447457717771,-0.0016424173486937477,-0.04436083622111919
2017-11-27,86.370003,87.0,86.370003,86.739998,85.548523,330900,-0.009080147244569403,0.00038554174769345195,-0.038088755039931144
2017-11-28,87.279999,87.470001,86.43,86.910004,85.71619399999999,194600,-0.026143880742512948,-0.006637206840962584,-0.04090917045437337
2017-11-29,87.110001,87.739998,87.08000200000001,87.559998,86.35726899999999,193900,-0.008012544529199417,0.003910213685262676,-0.03321210195213098
2017-11-30,87.610001,88.900002,87.08000200000001,88.410004,87.195587,232000,-0.009910479339604095,0.008792030478874224,-0.03290287082537624
2017-12-01,88.33000200000001,88.989998,86.440002,87.599998,86.396713,244300,-0.02104074537352485,-0.00430696734973246,-0.04215311823693746
2017-12-04,87.790001,88.699997,87.32,88.059998,86.85039499999999,290400,-0.004058169434736136,0.00923789837867428,-0.03525700718379543
2017-12-05,88.33000200000001,89.160004,87.889999,89.0,87.777489,255800,-0.0023995143984292255,0.021007718924747287,-0.018472191007623096
2017-12-06,88.940002,88.940002,88.120003,88.16999799999999,86.958885,251700,-0.0236796739022056,0.005702856386450961,-0.03153012140067357
2017-12-07,88.449997,88.720001,87.790001,88.379997,87.166,258900,-0.01788971313942156,0.012996013923139316,-0.012617638983649648
2017-12-08,88.269997,88.5,87.559998,87.900002,86.692596,251000,-0.02002888753971721,-0.005761559157497764,-0.00989301293593936
2017-12-11,87.870003,87.870003,86.860001,87.279999,86.081108,241200,-0.02350518364611265,-0.017540068703151945,-0.029963005062487724
2017-12-12,87.300003,87.540001,85.699997,86.43,85.242783,424400,-0.024740844984989963,-0.02169679678923231,-0.04360357243791935
2017-12-13,86.050003,87.190002,85.760002,86.690002,85.499222,420900,-0.00464281956305701,-0.024510027767831843,-0.03062685423188416
2017-12-14,87.08000200000001,87.209999,86.32,86.370003,85.18360899999999,302000,-0.016805571196612412,-0.03849353179078108,-0.03107211286698419
2017-12-15,86.589996,87.510002,86.589996,86.980003,85.78523299999999,474900,-0.015026674558967557,-0.031134450191557583,-0.019081407622357993
2017-12-18,87.25,87.889999,86.480003,86.57,85.38086700000001,251800,-0.023232879336691603,-0.04065863404808745,-0.027828557968172518
2017-12-19,86.300003,87.650002,86.300003,86.58000200000001,85.390732,367200,-0.006409096379533352,-0.02637053510107723,-0.023151579982144455
2017-12-20,86.839996,87.129997,86.290001,86.33000200000001,85.144165,189500,-0.01639396552033645,-0.018158634429867426,-0.017604879874410173
2017-12-21,86.400002,86.790001,85.720001,85.760002,84.58199300000001,265400,-0.021843861978859458,-0.015432568640901145,-0.028879264458459453
2017-12-22,85.68,86.360001,85.43,85.900002,84.720078,162500,-0.010938952033614946,-0.016819959941996032,-0.03378313266446398
2017-12-26,85.790001,86.449997,85.220001,85.389999,84.217072,130500,-0.019030932016068647,-0.02209687411679706,-0.0412251043315246
2017-12-27,85.41999799999999,85.82,85.059998,85.620003,84.44390899999999,114500,-0.011686593080137975,-0.018301179215594487,-0.04334723127300766
2017-12-28,85.849998,86.870003,85.660004,86.75,85.558388,207000,-0.003938448191338928,0.003051354687439556,-0.031248472278471162
2017-12-29,86.879997,87.0,86.239998,86.279999,85.094849,148900,-0.014965853738513779,-0.0005355837102340999,-0.02875746428354642
2018-01-02,86.440002,87.32,86.08000200000001,87.010002,85.814819,233300,-0.011749974781273487,0.001683995503696245,-0.025222677150448902
2018-01-03,87.260002,87.610001,86.82,87.190002,85.992355,177700,-0.02025576875326518,0.005980422268148544,-0.03545591051171737
2018-01-04,87.209999,87.93,85.800003,86.010002,84.82856,362900,-0.029406233408288962,-0.013755736934989216,-0.04584782626614281
2018-01-05,86.290001,87.449997,86.190002,86.910004,85.71619399999999,209200,-0.010990119641339113,-0.005459401895618221,-0.04504208887844907
2018-01-08,86.860001,87.510002,86.57,87.199997,86.002197,341200,-0.011760749438185059,-0.005688523472106688,-0.0494212964928078
2018-01-09,87.279999,87.760002,86.360001,86.389999,85.203331,282000,-0.024131737064721825,-0.027602129340477788,-0.052213394777986366
2018-01-10,86.099998,86.099998,85.160004,85.66999799999999,84.493217,161400,-0.019813753030676118,-0.034622647672482465,-0.06729032564129156
2018-01-11,85.440002,86.489998,85.440002,86.25,85.065262,311600,-0.009681417030012796,-0.03504030629689758,-0.06905501392622071
2018-01-12,86.370003,86.940002,85.879997,86.559998,85.371002,179400,-0.01741467750766379,-0.03386775100681838,-0.06501669416880329
2018-01-16,86.360001,87.209999,86.010002,86.239998,85.055389,254000,-0.007136331920976957,-0.016394185385591342,-0.07147991003040843
2018-01-17,86.769997,87.279999,86.510002,86.839996,85.647148,250400,-0.01931400644774328,-0.022232290193896276,-0.08828209799709263
2018-01-18,86.849998,87.32,86.349998,87.239998,86.04164899999999,220800,-0.007790450501991231,-0.017689157910871778,-0.07281331079013054
2018-01-19,87.300003,88.699997,87.300003,88.610001,87.392845,177500,-0.0016807468152375549,0.004151535131899919,-0.06105787356922576
2018-01-22,88.610001,88.610001,86.599998,87.459999,86.258636,369900,-0.035334697037903595,-0.009689640776484154,-0.07121840726027795
2018-01-23,87.440002,87.75,86.910004,87.599998,86.396713,158800,-0.013441270648191228,-0.010000658125366435,-0.0615156033484352
2018-01-24,87.809998,88.599998,86.349998,88.199997,86.98846400000001,255000,-0.0066266911161454445,0.0005245437643388584,-0.04279535361523212
2018-01-25,88.400002,89.43,88.129997,89.43,88.201576,339100,0.00021172775759659146,0.013944518918454385,-0.033025363344122205
2018-01-26,89.480003,89.5,88.459999,89.139999,87.915565,206300,-0.02651549015566701,0.0013626747418884477,-0.04842589146442311
2018-01-29,88.730003,89.230003,87.540001,87.730003,86.52494,254300,-0.020375823146513206,-0.014039999652635693,-0.055718860251208646
2018-01-30,87.449997,87.959999,87.050003,87.690002,86.80210100000001,345000,-0.0037900950460345584,-0.01108952316340961,-0.03148876268454792
2018-01-31,88.089996,88.099998,86.760002,87.41999799999999,86.534828,519100,-0.014771154486656002,0.006435353571178304,-0.038412518588022415
2018-02-01,87.239998,87.629997,85.809998,86.839996,85.960693,220800,-0.016734334655637895,0.0009993693842176299,-0.04235759953435014
2018-02-02,86.529999,86.910004,85.540001,85.800003,84.931236,217000,-0.0018512610160836829,0.003001843191268172,-0.024360941783062806
2018-02-05,85.099998,86.0,83.379997,83.379997,82.535736,434200,0.0035895418342404284,0.0029869269407694077,-0.013218476461356765
2018-02-06,82.379997,83.889999,81.410004,83.790001,82.94158900000001,352300,-0.023476175841961044,0.005621207292399788,-0.02070781005522626
2018-02-07,83.809998,84.910004,83.730003,83.849998,83.000977,304100,-0.006241629467544918,0.020540544297000807,-0.016877136738613352
2018-02-08,83.860001,84.82,81.360001,81.379997,80.555984,349100,-0.0006888222056700144,0.01474284087886435,-0.019797276493123128
2018-02-09,82.089996,82.589996,79.970001,82.160004,81.328087,367200,-0.016131455872468337,0.013028953512775665,-0.02484798136501265
2018-02-12,82.559998,83.449997,81.589996,82.599998,81.763634,303000,-0.016966838317971522,0.01055996653089153,-0.03348162850715486
2018-02-13,86.75,92.32,86.300003,89.720001,88.81154599999999,1102000,0.017206600660662374,0.08124604864245111,0.05090468459123976
2018-02-14,89.58000200000001,90.870003,88.739998,90.660004,89.74202700000001,512100,-0.015920983961065893,0.0651231688098477,0.06566042928348015
2018-02-15,90.18,91.970001,90.18,91.16999799999999,90.24685699999999,333300,-0.005775398057730641,0.07112121430466711,0.05587280614505907
2018-02-16,91.040001,92.139999,90.489998,91.83000200000001,90.900177,335500,-0.003398086147049284,0.07223108756737684,0.061042474300870175
2018-02-20,91.239998,92.190002,90.720001,91.059998,90.13797,372000,-0.00967727922788253,0.06131008328724974,0.0691149361346044
2018-02-21,91.339996,92.279999,90.110001,90.160004,89.247086,283200,-0.01609754196387847,0.06217563262850945,0.07195029893597926
2018-02-22,90.440002,91.459999,90.309998,90.610001,89.692528,255300,-0.005912978910679101,0.0746587739421134,0.07621745173185612
2018-02-23,90.739998,91.07,89.93,90.989998,90.06867199999999,249400,-0.01895789230384537,-0.01713213806068925,0.06764029753736889
2018-02-26,91.279999,91.480003,90.389999,90.779999,89.860802,250300,-0.02369956440317722,-0.02824023341311488,0.05381438125595661
2018-02-27,90.730003,90.730003,89.440002,89.5,88.593773,286500,-0.010732511830700453,-0.023264899072103162,0.054840197266852186
2018-02-28,89.730003,90.410004,89.209999,89.41999799999999,88.51458000000001,306900,0.0009756632850361768,-0.019841159250091778,0.058890472961650175
2018-03-01,89.239998,90.489998,88.309998,89.0,88.098839,241900,0.0010559939679977148,-0.00857318828497533,0.05639021271772915
2018-03-02,88.739998,89.889999,88.300003,89.68,88.77194200000001,270600,-0.011737159281229204,-0.001599635168482827,0.08004030454398059
2018-03-05,89.309998,90.699997,89.309998,90.400002,89.484657,231200,-0.01281138732347653,-0.008580321698278048,0.07763778815894451
2018-03-06,90.370003,91.050003,89.279999,90.769997,89.85090600000001,295800,-0.005005944447302291,0.004585153915100726,0.07170090768813075
2018-03-07,89.980003,91.139999,89.709999,90.139999,89.227295,317500,-0.014514216434520222,0.012103451178055558,0.051973313515557784
2018-03-08,90.400002,90.83000200000001,89.449997,89.949997,89.03920699999999,368000,-0.017440987242717476,0.006952057155004354,0.06042957967996809
2018-03-09,89.940002,90.949997,89.559998,90.870003,89.949898,283100,-0.012042948330630132,-0.01036498098923122,0.06256549162505465
2018-03-12,90.699997,90.989998,90.400002,90.779999,89.860802,181100,-0.0065970321740733695,-0.018787217987944693,0.048692517893194065
2018-03-13,91.269997,92.099998,90.269997,90.5,89.583649,257500,-0.008932833544057495,-0.018044813174111773,0.05556013779869051
2018-03-14,90.959999,91.269997,89.43,90.07,89.157997,266900,-0.011109618686308664,-0.014091545840794417,0.06254687293393246
2018-03-15,90.139999,90.57,89.800003,90.279999,89.365868,239600,-0.006102303961765365,-0.012429666252142368,0.056269398244720215
2018-03-16,90.349998,91.129997,89.760002,90.150002,89.237183,424800,-0.012916562167339052,-0.009091966974887455,0.03989441959990092
2018-03-19,90.059998,90.360001,89.449997,89.959999,89.04911,155000,-0.0008521936372565264,0.009667624374380068,0.06447599676194837
2018-03-20,90.019997,90.489998,89.66999799999999,89.779999,88.87093399999999,247700,-0.013542534945038653,0.013237558925467852,0.05526250625352169
2018-03-21,89.709999,90.339996,89.389999,89.589996,88.682854,266300,-0.010387934070154259,0.012680881496546448,0.04663055851087616
2018-03-22,89.220001,89.910004,87.93,87.959999,87.06935899999999,260900,-0.006529174371649127,0.01650933598797888,0.059040520273893726
2018-03-23,87.940002,87.940002,86.690002,86.769997,85.891411,215900,-0.001239445479995105,0.02309974907892265,0.07508665548196358
2018-03-26,87.660004,88.550003,87.07,88.209999,87.316833,278900,-0.01877712550427546,0.00965312208442004,-0.015323528313310852
2018-03-27,88.519997,89.129997,87.620003,88.08000200000001,87.188148,253200,0.005654300061165962,0.028748565128220882,0.003519815918274105
2018-03-28,88.08000200000001,88.900002,87.82,88.360001,87.465317,194000,-0.004587652296274669,0.022647163975316964,0.016001946432598224
2018-03-29,88.879997,90.339996,88.360001,89.83000200000001,88.920433,287300,-0.009615188590346158,0.02895459387793764,0.011986012564082493
2018-04-02,89.370003,89.739998,87.16999799999999,87.93,87.039665,184400,-0.006644170080653211,0.030440129967379548,0.015760605191005972
2018-04-03,88.43,90.16999799999999,87.690002,89.559998,88.65316,336600,-0.006037999841852937,0.029148561358791625,0.026013449004175904
2018-04-04,88.91999799999999,89.949997,86.849998,89.709999,88.801643,276500,-0.024531667619561937,0.011753321717104193,0.012181203256954376
2018-04-05,90.300003,90.849998,89.279999,90.400002,89.484657,276400,-0.011130379668197854,0.022911542643558214,0.02472015239093661
2018-04-06,89.690002,90.360001,88.230003,88.5,87.603897,362200,-0.00778194578230984,0.007881484564686403,0.03964153389607539
2018-04-09,89.150002,90.339996,88.599998,89.900002,88.989723,471500,-0.00026228262926863977,0.014151045429247056,0.05341789093394844
2018-04-10,90.75,93.099998,90.099998,92.720001,91.781166,455600,0.00432628741657215,0.025624824921451683,0.057451996735625954
2018-04-11,91.970001,92.639999,91.75,92.25,91.31591800000001,250800,-0.006494146459083083,0.024870860439402342,0.049204653915383645
2018-04-12,92.760002,93.25,92.480003,92.699997,91.76136,221500,-0.014645326135544146,0.01568835274326652,0.04330143691592525
2018-04-13,93.199997,93.33000200000001,92.459999,92.75,91.81085999999999,262600,-0.0072919217266207426,0.028945077578560685,0.04970660253379311
2018-04-16,93.029999,94.660004,92.959999,94.309998,93.355064,196900,0.0005935342707719116,0.03672565874815792,0.056860657223993805
2018-04-17,94.279999,96.389999,93.790001,96.129997,95.156631,507200,0.004198868672304457,0.04431238250319236,0.07185046522121219
2018-04-18,96.150002,96.199997,95.18,95.610001,94.64190699999999,346800,-0.015266483774279749,0.025693037239361338,0.07215887101830543
2018-04-19,95.050003,95.879997,94.540001,94.800003,93.840111,165000,-0.00983347801249046,0.00863001376427519,0.07644699148913237
2018-04-20,95.110001,95.139999,94.120003,94.440002,93.483757,217800,-0.008884857317059236,0.01293980955028129,0.08093168145360963
2018-04-23,94.709999,95.43,94.099998,94.349998,93.394661,189500,-0.012073629921529161,0.0152807866880309,0.07662703677806793
2018-04-24,94.599998,94.699997,92.769997,93.18,92.236511,401900,-0.007902336712747093,0.01284344669083115,0.07664159506541868
2018-04-25,93.019997,93.949997,92.370003,93.150002,92.206818,298700,-0.010479205849256878,0.002082910591908238,0.07137323406804441
2018-04-26,93.18,93.699997,92.599998,93.279999,92.335487,417000,-0.014854239079278742,-0.015411860760256246,0.0655305714358434
2018-04-27,93.75,94.739998,91.879997,93.459999,92.513672,407500,-0.011194901858100792,-0.008342037123115986,0.05414920952080937
2018-04-30,93.730003,93.989998,93.050003,93.5,92.553268,907800,0.00029539680728607465,0.003072465775741051,0.06628189833940556
2018-05-01,93.449997,93.870003,92.730003,93.540001,92.592865,427800,-0.013684269263592341,-0.003814087755594109,0.06443671220146907
2018-05-02,94.0,94.0,92.470001,92.559998,91.62278,631100,-0.018593883485586993,-0.006104544318476179,0.054013156471612866
2018-05-03,92.25,92.83000200000001,90.980003,91.120003,90.197372,560200,-0.023129592009996536,-0.02052072281250794,0.03302112317398809
2018-05-04,90.839996,92.769997,90.839996,92.260002,91.32582099999999,339900,-0.010549511555610458,-0.018659913755405988,0.04306019822821838
2018-05-07,92.370003,93.290001,92.300003,92.800003,91.860352,215100,-0.002652049843899995,-0.007290268261325394,0.029491738046297122
2018-05-08,92.769997,92.790001,91.550003,91.760002,91.14518000000001,284600,-0.018291095689630055,-0.015655374038487935,0.015846671507004473
2018-05-09,92.0,93.059998,91.370003,92.959999,92.337135,255500,-0.003660021359264576,-0.02094735428511285,0.016379950176355074
2018-05-10,93.099998,93.940002,93.050003,93.790001,93.161575,377900,-0.0059894434236991145,-0.019267340103938047,0.014729242130151476
2018-05-11,93.75,94.32,93.150002,94.290001,93.658226,492900,-0.002821469888464101,-0.012356363249677926,0.012508231863143315
2018-05-14,94.190002,94.709999,92.290001,93.370003,92.744392,477500,-0.012416628586889189,-0.009621067879786338,0.011646733577097557
2018-05-15,93.16999799999999,93.16999799999999,91.589996,92.099998,91.482895,406400,-0.015643878242344478,-0.016154094705700395,0.003994560878959774
2018-05-16,92.32,93.769997,91.91999799999999,93.540001,92.913246,257600,0.002784547956654393,-0.007076198194059913,0.014534055287550807
2018-05-17,93.66999799999999,93.91999799999999,93.050003,93.290001,92.664925,242600,-0.010942303621397365,-0.0013459343331296836,0.00034969174462773367
2018-05-18,92.559998,94.279999,92.379997,93.559998,92.933113,272300,0.005636169767940125,0.0008225981055440812,-0.008422276639552528
2018-05-21,94.019997,94.410004,93.839996,94.010002,93.380104,162300,-0.0059587774286100625,-0.001300672306919104,-0.01144229061616997
2018-05-22,94.279999,94.949997,93.66999799999999,93.959999,93.330437,165300,-0.0050337368123924975,-0.002302776816955898,-0.005482897697079103
2018-05-23,93.629997,94.269997,93.360001,94.089996,93.45955699999999,163700,-0.00891185691135199,0.006524719386862721,-0.010773624614600408
2018-05-24,94.120003,94.480003,93.58000200000001,94.029999,93.399963,116200,-0.0065145592101583105,0.014741700015883374,-0.01798939785331477
2018-05-25,93.879997,94.41999799999999,93.849998,94.08000200000001,93.44963800000001,154900,-0.0037608683053020897,0.00617155004802683,-0.023606777167614723
2018-05-29,93.459999,94.010002,93.059998,93.309998,92.684784,212700,-0.0026757808363244706,0.011404729664342916,-0.013938615830390688
2018-05-30,92.699997,94.410004,92.699997,93.959999,93.330437,258600,-0.0011758782655331146,0.00020516456971364505,-0.016847125834114074
2018-05-31,94.25,94.389999,92.190002,92.32,91.701424,151900,-0.021622545970107154,-0.007938555516919799,-0.03232065568337106
2018-06-01,92.879997,93.290001,92.470001,92.769997,92.14840699999999,174800,-0.013746630632409662,-0.016475533523854224,-0.03723921790896423
2018-06-04,93.110001,93.900002,92.440002,93.860001,93.231102,172100,-0.0005951510672916882,-0.007403516944028965,-0.031020588249460523
2018-06-05,94.059998,94.5,93.559998,93.91999799999999,93.29070300000001,114800,-0.00833612867146094,-0.008854199899367643,-0.02892650834459065
2018-06-06,93.66999799999999,94.099998,92.040001,93.910004,93.28076899999999,437300,-0.011077318574336026,-0.020383304881135267,-0.028578221288493744
2018-06-07,93.83000200000001,94.43,92.440002,93.239998,92.615257,534000,-0.011418573044664981,-0.03024216629498966,-0.03583874500226436
2018-06-08,93.050003,93.900002,92.980003,93.660004,93.032448,290600,-0.004946218067707342,-0.023194839714234305,-0.04311443132408943
2018-06-11,93.790001,94.860001,93.43,93.82,93.191376,389400,-0.0070575101138175,-0.011851086453006587,-0.040357654380783536
2018-06-12,94.089996,94.889999,93.599998,94.150002,93.519165,455100,-0.006533975644244627,-0.004153439950434823,-0.03528811354092287
2018-06-13,94.550003,95.0,94.050003,94.32,93.688019,321400,-0.004733266898524491,-0.005526645000381691,-0.016026510437334274
2018-06-14,94.809998,95.260002,94.260002,94.860001,94.22440300000001,320400,-0.005936947453816899,-0.002222989394069508,-0.012489583983254171
2018-06-15,95.0,95.370003,94.389999,94.91999799999999,94.283997,505200,-0.008241947872169142,0.008064290524485429,-0.01322366250268292
2018-06-18,94.57,95.08000200000001,94.019997,94.839996,94.204536,347300,-0.006745840450527396,0.01579517504415673,-0.004388195919619697
2018-06-19,93.949997,94.620003,93.610001,94.25,93.618492,333700,-0.007371885788434618,0.01221287158102502,-0.00995420545795156
2018-06-20,94.16999799999999,94.870003,93.940002,94.639999,94.005882,285600,-0.000873815607575601,0.013992895652779502,-0.0070974186240659876
2018-06-21,94.510002,94.610001,92.949997,93.099998,92.476196,296900,-0.01468066900170406,0.0021832044314553656,-0.02074854585978958
2018-06-22,93.279999,93.489998,92.339996,92.629997,92.009346,681100,-0.011572510270198677,-0.010576292405910515,-0.01698173496345845
2018-06-25,92.769997,93.199997,91.41999799999999,92.18,91.562363,348700,-0.003626778866145486,-0.004866812442927859,-0.0012023017204816355
2018-06-26,92.349998,93.449997,92.019997,92.709999,92.088806,266700,-0.003177529082654118,-0.002985761321066427,-0.009133225629689434
2018-06-27,92.779999,93.910004,92.07,92.099998,91.482895,295800,-0.003460092443342333,-0.002230806352795156,-0.00527306793928517
2018-06-28,92.0,92.760002,91.660004,92.709999,92.088806,251300,-0.005543098097427368,0.0004197800093646009,-0.01035702355413104
2018-06-29,93.199997,94.120003,92.93,93.379997,92.75431800000001,335800,-0.0015761815956478742,0.0044437892754229935,-0.00135295704172389
2018-07-02,92.910004,93.769997,92.459999,93.589996,92.962914,237500,-0.0074430164910355145,0.01366726740960722,-0.004778501633226462
2018-07-03,93.959999,95.029999,93.610001,93.989998,93.360237,178000,0.0009589685629789457,0.02981309896308204,0.00630664461276087
2018-07-05,94.489998,94.540001,93.449997,94.540001,93.90655500000001,249900,-0.010742648205490646,0.018114040743399507,0.0021700390070344966
2018-07-06,94.220001,94.379997,93.720001,94.08000200000001,93.44963800000001,238000,-0.016264487003780026,0.0012600508788542797,-0.014044724798861985
2018-07-09,94.449997,95.629997,94.449997,95.099998,94.462799,188700,-0.002940054557106997,0.0012189881365189947,-0.015458809467109091
2018-07-10,95.16999799999999,96.160004,95.16999799999999,96.110001,95.466034,216100,0.0012141038268520532,0.007874463448233726,-0.0026877246756109585
2018-07-11,95.610001,96.370003,95.110001,95.68,95.03891,220800,-0.0039023778780338247,0.004067071163322389,0.010652669638518297
2018-07-12,96.0,96.83000200000001,95.589996,95.739998,95.098511,196700,-0.014863661254114646,-0.00320011753505689,0.008496914355570873
2018-07-13,95.360001,96.190002,94.660004,94.870003,94.234344,205300,-0.013439335874090297,-0.02263190064198195,-0.008921739085192115
2018-07-16,94.769997,94.879997,93.16999799999999,93.290001,92.664925,132000,-0.022845209762443197,-0.03564871631385813,-0.02462447740745599
2018-07-17,93.220001,94.739998,93.160004,94.639999,94.005882,155400,0.0011757477528666627,-0.011924166147378124,-0.005585586065104842
2018-07-18,94.639999,95.18,94.18,94.620003,93.98601500000001,150000,-0.008451912177590337,-0.0162928527646109,-0.0015094959367303318
2018-07-19,94.699997,96.540001,94.699997,96.33000200000001,95.684555,213300,0.012081527032594686,-0.0015182991993123451,0.018988815839311002
2018-07-20,95.940002,96.160004,95.33000200000001,95.779999,95.138237,192600,-0.0074217438693624516,-0.008930690529557417,0.013573065561967468
2018-07-23,95.940002,96.33000200000001,94.790001,95.139999,94.502533,195800,-0.017882626931047696,-0.009387308766689806,0.0032630455393158897
2018-07-24,95.339996,95.860001,94.529999,94.75,94.115143,225300,-0.012831167218932293,-0.008057241072878085,-0.011452335157688509
2018-07-25,94.57,95.0,94.050003,94.730003,94.09528399999999,182300,-0.015039902615603395,-0.001562699288172098,-0.02396418730155858
2018-07-26,94.879997,96.379997,94.559998,96.07,95.426292,170300,0.005053776146000111,0.005118912385264629,-0.008530964204325642
2018-07-27,98.0,103.029999,97.150002,102.900002,102.210541,626000,0.05038016217372743,0.08275296452049741,0.06544829353961035
2018-07-30,103.519997,104.099998,99.940002,102.5,101.81321700000001,531800,-0.010790253667476435,0.06275714099491747,0.06953308525320345
2018-07-31,102.480003,103.480003,100.779999,102.43,102.082298,588100,-0.006220399358087825,0.06530074402056041,0.06488091392974837
2018-08-01,102.400002,102.68,101.410004,102.43,102.082298,301400,-0.0003352727643290976,0.07488232130940808,0.07596216241726861
2018-08-02,101.639999,103.58000200000001,101.309998,102.980003,102.630432,327400,0.00019428581192659777,0.08420033642967173,0.08332429367789373
2018-08-03,102.989998,104.5,102.849998,104.099998,103.746628,300200,0.0035349305095975225,0.09965552960200785,0.08055815474337713
2018-08-06,104.010002,104.949997,103.980003,104.209999,103.856255,279500,-0.005032415544439672,0.08009655713011021,0.074551354246851
2018-08-07,104.160004,104.68,103.389999,103.550003,103.198502,296500,-0.010159376590938685,-0.004341596861259234,0.06333750303114627
2018-08-08,103.339996,103.980003,102.870003,102.959999,102.610497,277900,-0.007402704525356185,-0.011669186870339132,0.05744411837349972
2018-08-09,103.110001,104.07,103.0,103.900002,103.54731,265500,0.0054964505190264745,0.001095334731751052,0.06153245938607643
2018-08-10,103.370003,104.040001,102.160004,102.379997,102.032463,325600,-0.011042228924992514,-0.007543828500332417,0.05475106650732897
2018-08-13,102.239998,103.470001,100.940002,101.400002,101.05579399999999,227800,-0.0068670470746505785,-0.013588854272330586,0.03992234044248111
2018-08-14,101.889999,102.5,101.33000200000001,101.980003,101.633827,176500,-0.0067800484158420105,-0.020437870048366946,0.04200624395161068
2018-08-15,101.559998,101.660004,100.059998,101.339996,100.995995,300500,-0.002175569506848163,-0.016626361257192634,0.056664942110804084
2018-08-16,101.620003,102.160004,101.349998,101.66999799999999,101.324875,276300,-0.006170021140471604,-0.012089855483941925,0.05002865941068535
2018-08-17,101.68,102.989998,101.400002,102.760002,102.411179,131800,0.003013035263741415,0.0007081612411905525,0.050277816166456546
2018-08-20,102.91999799999999,103.519997,102.599998,102.860001,102.510841,198600,-0.005076082315382813,-0.011275318316155136,0.04619006990659891
2018-08-21,102.83000200000001,103.849998,102.83000200000001,103.290001,102.93937700000001,209600,0.00055650343525393,-0.0015717648978839094,0.05637941914450195
2018-08-22,103.32,103.400002,102.739998,103.18,102.82975,103300,-0.005046354737164194,0.003365141971116259,0.06591938305557932
2018-08-23,103.32,103.550003,102.760002,102.910004,102.56066899999999,124400,-0.006218536011701303,0.00310293147801044,0.08075789174347925
2018-08-24,102.980003,104.139999,102.980003,103.800003,103.447647,127300,0.00022901306889000494,0.004198719395229311,0.07278782765341152
2018-08-27,103.790001,104.839996,103.790001,104.540001,104.185135,175400,-0.00036871771689028776,0.008298518282003009,0.07462003045729926
2018-08-28,104.559998,105.190002,103.809998,103.889999,103.537338,214900,-0.008473359382110246,-0.005554214683971104,0.04624190068179779
2018-08-29,104.199997,105.16999799999999,103.769997,104.699997,104.344589,199700,-0.003229223002774617,-0.002020587774095972,0.05310017266206035
2018-08-30,104.860001,105.769997,103.82,104.699997,104.344589,231900,-0.0022389014049188916,0.00031430080276262373,0.06608102871395438
2018-08-31,104.620003,105.440002,104.379997,104.709999,104.35455300000001,153000,-0.0036266961682844823,0.0009426218696590993,0.0749192459981165
2018-09-04,105.32,106.5,104.58000200000001,106.379997,106.018883,323600,0.006696730574479837,0.01934876707175004,0.10166935810340139
2018-09-05,106.279999,108.779999,106.279999,108.18,107.81278200000001,334100,0.015353676058651011,0.036503396442493674,0.10417231171064056
2018-09-06,108.400002,109.690002,108.129997,108.949997,108.58016200000002,228400,0.00533338057843924,0.04779222444717668,0.03965929038397853
2018-09-07,108.940002,108.940002,107.790001,107.900002,107.53373,258500,-0.014184347581386092,0.046830269448849826,0.030315029135730143
2018-09-10,108.389999,109.08000200000001,107.889999,108.559998,108.191483,212400,-0.00035362600093424845,0.048951089187466934,0.03675051782896688
2018-09-11,108.260002,108.730003,107.540001,108.519997,108.151619,101600,-0.006668790009408454,0.04040952572241441,0.031608233126960705
2018-09-12,108.360001,109.629997,108.120003,109.389999,109.01866899999999,154700,0.005842058493391811,0.048076919859306066,0.03879582942775084
2018-09-13,108.75,110.900002,108.66999799999999,110.82,110.443817,273900,0.01292819672618517,0.03831772575945891,0.04033155426085244
2018-09-14,110.769997,112.160004,109.790001,111.970001,111.58991200000001,424200,0.007856480716261771,0.028779919619273286,0.05285567419980364
2018-09-17,112.300003,112.309998,110.910004,111.300003,110.92218799999999,564500,-0.007155567754913328,0.01761201659028,0.06161290383551776
2018-09-18,111.199997,111.790001,109.970001,111.589996,111.211197,202600,-0.004582625284100139,0.022327843193242103,0.06431205919931138
2018-09-19,111.66999799999999,111.900002,110.529999,111.129997,110.752762,204300,-0.008712029680660649,0.012742579809244425,0.04839776290646025
2018-09-20,111.279999,111.510002,110.190002,110.489998,110.11493700000001,204500,-0.014292060095498549,0.0032583115068449686,0.04241037313413809
2018-09-21,110.16999799999999,110.849998,109.66999799999999,110.32,109.94551100000001,473200,0.00037745349058315725,-0.005541313491332467,0.04684337020874896
2018-09-24,110.199997,111.470001,109.989998,110.379997,110.00531000000001,352400,-0.0009259527931426703,-0.009195135419452605,0.051574288889766784
2018-09-25,110.75,110.959999,108.620003,108.760002,108.390808,279000,-0.019411300097012862,-0.03272279588520455,0.036759239571791724
2018-09-26,108.660004,109.489998,108.370003,108.599998,108.23135400000001,629100,-0.00017107931238236063,-0.030483867561780897,0.04321889175767879
2018-09-27,108.599998,109.190002,108.160004,108.339996,107.972229,255600,-0.0066041445420026434,-0.032887860905757904,0.03071603705236292
2018-09-28,108.209999,108.889999,107.550003,107.739998,107.37426799999999,416900,-0.009109648384289848,-0.03305127335699165,0.026621807865623737
2018-10-01,108.050003,109.199997,107.370003,107.769997,107.40416699999999,208600,-0.005414038092423468,-0.022821688935435347,0.021160449096586653
2018-10-02,107.93,108.610001,107.599998,108.150002,107.78288300000001,210300,-0.0012374120859721671,-0.01773382654601452,0.02574440169161818
2018-10-03,108.510002,108.629997,107.529999,108.0,107.63339199999999,361200,-0.006001218352383653,-0.023898651421310646,0.024572705990445698
2018-10-04,107.790001,107.790001,106.300003,107.089996,106.72647099999999,273300,-0.003820453335617202,-0.010677933591797917,0.021882586584764496
2018-10-05,107.16999799999999,107.639999,106.959999,107.16999799999999,106.806206,220800,0.0024634448763221073,-0.006210315191920834,0.028710058283754947
2018-10-08,107.120003,107.849998,106.839996,107.66999799999999,107.30450400000001,164700,-0.0006740907180367017,0.003995993920000274,0.0402662456563343
2018-10-09,107.389999,107.389999,105.68,105.720001,105.36113,277500,-0.01832020350021768,-0.007315316360792856,0.021327079278926853
2018-10-10,105.300003,105.769997,102.120003,102.41999799999999,102.072327,456000,4.617650981852961e-05,-0.0022549842968162537,0.018591163997007776
2018-10-11,102.370003,103.459999,101.459999,101.57,101.225212,312700,0.006374158112656403,0.0062821521979099515,0.03108393201986903
2018-10-12,102.68,103.360001,100.339996,101.650002,101.304947,399100,-0.012250489383100138,-0.0049375007837229035,0.00028643813497275517
2018-10-15,101.66999799999999,102.959999,101.050003,102.150002,101.803246,239600,0.006039004885473709,0.006150408925259754,-0.008470400932469424
2018-10-16,102.660004,105.769997,102.660004,105.599998,105.24153100000001,231300,0.009461210702299105,0.011808462551325505,-0.007273703612096227
2018-10-17,106.089996,106.089996,104.41999799999999,105.019997,104.663498,180900,-0.012662035892553547,0.0015037904342909414,-0.005060233358224586
2018-10-18,104.730003,105.239998,103.83000200000001,104.269997,103.916046,439900,0.004124332183327972,0.025691113475613925,-0.0019328964329261566
2018-10-19,104.589996,105.209999,104.279999,104.32,103.96588100000001,271800,-0.0031421687663080178,0.024827546802663747,0.003009185077257115
2018-10-22,104.610001,104.739998,103.050003,103.970001,103.617073,199300,-0.003005142781042913,0.013321893065810997,-0.003671094773626038
2018-10-23,102.730003,104.57,101.720001,103.68,103.328056,479500,-0.001394476122903221,0.029374639056638507,-0.008656648567847647
2018-10-24,103.629997,103.82,99.879997,100.08000200000001,99.740273,498300,-0.007935926859622633,0.014556786496137342,-0.02269353405560537
2018-10-25,100.879997,101.970001,100.510002,101.290001,100.946167,299800,-0.010752447504220441,-0.003827279710305831,-0.028712999912682058
2018-10-26,100.449997,101.050003,99.309998,100.360001,100.019325,423800,-0.0008534491476321904,0.009682787476456234,-0.017705289075010455
2018-10-29,101.32,102.07,99.139999,100.160004,99.82000699999999,271300,0.0006375945013585849,0.006939821520904665,-0.007735654721265917
2018-10-30,100.040001,101.410004,99.339996,101.370003,101.370003,318600,-0.00255407600854074,0.005962393296797153,0.005713266867209299
2018-10-31,102.43,103.07,101.849998,101.959999,101.959999,417100,-0.0068658249530964,2.4732951384720536e-05,0.0018949516690911494
2018-11-01,102.690002,103.470001,102.389999,103.18,103.18,392600,-0.0035909082401115455,-0.0013171992098319762,-0.0007787123582270183
2018-11-02,97.050003,105.33000200000001,95.059998,103.800003,103.800003,959300,0.07542836757441762,0.014999111170403978,0.025028373000003157
2018-11-05,103.989998,104.480003,101.25,101.879997,101.879997,481500,-0.024868967122055885,-0.0028200812936987063,-0.0010492136445998668
2018-11-06,101.639999,104.769997,101.489998,104.099998,104.099998,381300,0.01770782937537163,0.004241286314980108,0.019423858145727557
2018-11-07,104.879997,105.260002,103.339996,105.110001,105.110001,340200,-0.012040067787886244,-0.011676743509982934,0.0136388751257428
2018-11-08,104.949997,105.769997,104.599998,105.129997,105.129997,368400,0.0015532278252292642,-0.008837715403899438,0.01969724039874521
2018-11-09,104.959999,105.800003,103.129997,104.290001,104.290001,227100,-0.0017079143677225517,-0.0026287630602466194,0.01700001515485905
2018-11-12,104.160004,104.349998,101.58000200000001,101.769997,101.769997,343100,-0.005863842104662176,-0.008582733325383174,0.014537205737700454
2018-11-13,102.33000200000001,103.459999,101.540001,102.379997,102.379997,225200,0.0033753841693018316,-0.013451383180383303,0.02225492341141777
2018-11-14,103.040001,103.910004,101.709999,102.08000200000001,102.08000200000001,163200,0.00399391861048759,0.015465365943508225,0.020626467490829192
2018-11-15,101.550003,104.83000200000001,101.209999,104.790001,104.790001,261000,0.017881086641119204,0.015812302848236648,0.03124016707396393
2018-11-16,104.190002,107.150002,104.190002,106.279999,106.279999,235400,0.01336023628984151,0.03904182436184467,0.059996015848380324
2018-11-19,106.199997,106.650002,104.709999,105.18,105.18,192700,0.005109193847283144,0.042718752736291776,0.06467097743185324
2018-11-20,104.620003,105.43,103.370003,104.309998,104.309998,246800,0.0018319404164532926,0.05151137085535762,0.06222923381230672
2018-11-21,104.68,105.190002,103.150002,103.5,103.5,221600,-0.008393530014600081,0.045239101795138126,0.06471380831656148
2018-11-23,103.0,104.41999799999999,102.980003,103.900002,103.900002,75400,0.009003787892498671,0.048213791337041734,0.06431830582319975
2018-11-26,104.720001,104.989998,102.949997,103.690002,103.690002,231700,-0.0187058798841111,0.026115919755417494,0.03493392469492118
2018-11-27,103.300003,103.32,102.089996,102.300003,102.300003,213400,-0.016618937756397223,-0.006299945410277452,0.023436431229395538
2018-11-28,102.800003,104.07,101.68,104.029999,104.029999,327800,-0.007366199631595904,-0.024142306137921565,0.010162596234844834
2018-11-29,103.720001,104.93,103.690002,103.849998,103.849998,238400,0.0009493231716239947,-0.030067808344635516,0.009775622284553975
2018-11-30,103.660004,104.550003,103.25,104.050003,104.050003,330400,-0.00439694199915408,-0.04629334801115714,0.0026139927353385772
2018-12-03,105.230003,105.510002,102.449997,104.459999,104.459999,292000,-0.0072977000381015955,-0.042408445834325015,-0.007069276574402039
2018-12-04,104.860001,104.860001,102.83000200000001,102.940002,102.940002,273100,0.011570782314869632,-0.03459984133732341,0.015161677989738997
2018-12-06,102.0,102.0,98.349998,101.629997,101.629997,302900,-0.015739898781311545,-0.028447834108767722,0.01031337029645929
2018-12-07,100.889999,102.849998,99.099998,99.769997,99.769997,226100,0.010691898229925556,-0.0065703493924385015,0.007183294360500803
2018-12-10,99.43,99.860001,98.220001,99.110001,99.110001,161100,-0.005827591528168696,-0.0090236610765837,-0.005800886362643531
2018-12-11,100.099998,101.019997,98.279999,98.66999799999999,98.66999799999999,192600,-0.003953342431167961,-0.01357039313828512,-0.009757164150528297
2018-12-12,100.099998,100.940002,99.75,99.93,99.93,240900,0.0009973970442294089,-7.275476069334985e-05,0.002516505023260507
2018-12-13,100.41999799999999,101.269997,99.510002,100.32,100.32,167800,0.0020775617520110146,0.010971701369360431,0.005219624004790369
2018-12-14,100.040001,100.959999,99.129997,100.339996,100.339996,187100,0.014364207883900804,0.012199887148429234,0.012362453967764253
2018-12-17,99.839996,100.650002,98.040001,98.639999,98.639999,313900,0.005355482938651512,0.02738882949124921,0.04052228108140721
2018-12-18,99.43,100.269997,97.269997,97.940002,97.940002,231000,-0.009716962626517223,0.015055545832005635,0.01799755387752633
2018-12-19,98.279999,98.839996,95.269997,95.589996,95.589996,268300,-0.011887369433832617,0.0146818642062847,0.020557721353624103
2018-12-20,95.510002,96.150002,93.66999799999999,95.010002,95.010002,248100,0.006576061106408737,0.028586689711925573,0.027667240965296713
2018-12-21,94.760002,96.610001,93.510002,93.550003,93.550003,588800,0.007124672681366739,0.026619583571325656,0.03176485165483278
2018-12-24,92.860001,92.860001,89.66999799999999,89.699997,89.699997,168300,-0.013803535121305721,0.007985720845917754,0.021788078176091297
2018-12-26,89.720001,92.010002,89.720001,91.769997,91.769997,394400,-0.020712000210382442,-0.03707329270672499,-0.011259455558577436
2018-12-27,90.699997,92.480003,90.010002,92.370003,92.370003,467500,-0.0005456878982164071,-0.04298740720147798,-0.017930492063578995
2018-12-28,92.599998,93.910004,92.050003,92.699997,92.699997,437400,0.0063075410455661896,-0.030970717126651337,-0.028785466097361656
2018-12-31,92.82,94.07,92.660004,94.07,94.07,246900,0.010216646511637784,-0.015985160089260653,-0.03446926309748122
2019-01-02,92.730003,92.730003,89.449997,90.18,90.18,517500,-0.04114713492342226,-0.06929617538456867,-0.08434768715556373
2019-01-03,88.970001,90.209999,88.260002,89.089996,89.089996,637200,0.01917488542886936,-0.061705502161300885,-0.08145202136182572
2019-01-04,90.099998,91.900002,89.290001,91.07,91.07,433600,-0.012307801027552578,-0.05894473262920297,-0.0823957562482498
2019-01-07,90.599998,93.489998,90.58000200000001,91.949997,91.949997,525400,0.009253248896011534,-0.030725732846993203,-0.09019897974261237
2019-01-08,92.82,94.099998,91.760002,93.519997,93.519997,379600,0.005063065272160827,-0.021434593592982054,-0.06548100541197854
2019-01-09,93.860001,94.199997,93.209999,93.480003,93.480003,195700,-0.005977399189410093,-0.030760519395546915,-0.05324604008263112
2019-01-10,93.139999,94.82,93.129997,94.58000200000001,94.58000200000001,205800,0.006394800913368748,-0.02978436399042561,-0.04011132094998526
2019-01-11,94.66999799999999,94.75,93.43,94.730003,94.730003,248200,-0.0025103982777565648,0.015445863618948508,-0.03883401519197971
2019-01-14,94.279999,94.849998,93.739998,93.959999,93.959999,210500,-0.0042909056144058155,-0.0003520723181793528,-0.03551074566884793
2019-01-15,93.970001,95.400002,93.900002,94.809998,94.809998,213900,-0.0008016713901097816,0.009767034241983552,-0.03022027617194123
2019-01-16,94.82,95.349998,94.389999,94.709999,94.709999,187100,-0.0016769827666509585,0.0038617256439295033,-0.05173741276135946
2019-01-17,94.389999,96.16999799999999,94.379997,95.93,95.93,265500,0.00601053918729022,0.0018163939879105584,-0.03521677731530026
2019-01-18,96.099998,97.970001,95.879997,97.690002,97.690002,237400,0.009104362934067467,0.011417357177798237,-0.03525833351239438
2019-01-22,97.41999799999999,98.25,95.120003,96.440002,96.440002,304000,-0.0006675283530208631,0.005607412987195914,-0.02548024688620565
